Time,CH1_mV,CH2_mV
0.0,-0.002161,-0.001729
0.005,-0.00167,0.00702
0.01,-0.001914,-0.014974
0.015,0.004985,-0.002673
0.02,-0.003254,0.001159
0.025,0.003484,0.011636
0.03,0.00985,0.001105
0.035,-0.011075,-0.010147
0.04,0.003695,0.013111
0.045,0.000625,-0.001063
0.05,0.007977,-0.014535
0.055,-0.004684,0.004904
0.06,0.013101,-0.002406
0.065,0.005649,0.002482
0.07,0.011735,-0.011132
0.075,0.008524,-0.015145
0.08,-0.039299,-0.006069
0.085,-0.013737,0.00876
0.09,0.009964,-0.012191
0.095,0.01271,-0.010022
0.1,-0.001294,-0.002939
0.105,0.001716,0.008186
0.11,0.009576,0.003499
0.115,0.009749,0.004785
0.12,-0.009405,-0.007174
0.125,-0.00705,0.004993
0.13,-0.003752,0.023358
0.135,-0.012289,-0.010989
0.14,0.011527,0.014218
0.145,0.007585,0.008358
0.15,0.021395,-0.00094
0.155,-0.021344,-0.005321
0.16,0.014293,-0.014437
0.165,0.000503,0.002532
0.17,-0.004734,0.007236
0.175,0.008712,0.023214
0.18,0.0093,-0.006094
0.185,-0.008427,-0.008316
0.19,0.014284,-0.005668
0.195,-0.001054,0.007493
0.2,-0.010852,-0.002937
0.205,-0.027619,-0.010825
0.21,-0.008516,0.004158
0.215,0.017902,-0.000185
0.22,0.00392,0.00168
0.225,0.016271,0.008934
0.23,0.004105,-0.010109
0.235,0.013551,0.00381
0.24,0.018404,-0.000299
0.245,0.029297,-0.003589
0.25,0.023896,0.001151
0.255,-0.007744,-0.011284
0.26,-0.002265,0.014233
0.265,0.012246,0.006889
0.27,-0.035638,0.00711
0.275,0.008338,-0.005499
0.28,-0.009411,-2.3e-05
0.285,0.025873,-0.010551
0.29,-0.006417,0.013618
0.295,-0.006692,-0.003643
0.3,0.001467,-0.012413
0.305,0.003299,-0.012096
0.31,0.013278,3.2e-05
0.315,0.034251,0.002808
0.32,0.020485,-0.013033
0.325,-0.001832,0.003231
0.33,0.026186,-0.016809
0.335,0.014859,0.005914
0.34,0.023003,0.007124
0.345,0.000781,-0.005216
0.35,-0.018723,0.001954
0.355,-0.002875,0.020203
0.36,-0.009165,0.003204
0.365,-0.023535,-0.003955
0.37,0.003917,0.00824
0.375,0.021722,-0.000441
0.38,-0.016759,0.004579
0.385,0.007755,0.004917
0.39,-0.010504,0.011334
0.395,0.001318,0.006998
0.4,0.019111,0.006093
0.405,0.004298,0.021528
0.41,0.003656,-0.00296
0.415,0.00168,0.014828
0.42,0.001781,0.005194
0.425,0.017936,-0.005129
0.43,-0.025899,0.002994
0.435,0.003446,-0.00608
0.44,0.013066,0.006076
0.445,-0.014925,0.005182
0.45,-0.002942,-0.01483
0.455,0.006794,-0.000452
0.46,-0.011179,0.005229
0.465,0.007321,-0.005775
0.47,0.006005,0.010151
0.475,-0.01069,0.003809
0.48,4.1e-05,0.02266
0.485,-0.027935,0.006953
0.49,-0.004594,-0.001002
0.495,0.028524,-8.6e-05
0.5,0.033614,-0.004421
0.505,0.005258,-0.004908
0.51,-0.01036,0.000625
0.515,-0.004239,0.002025
0.52,-0.031575,0.020025
0.525,-0.002505,0.017429
0.53,-0.015107,0.002925
0.535,0.047474,-0.008697
0.54,-0.022429,-0.005465
0.545,0.007087,0.006933
0.55,0.019356,-0.00257
0.555,-0.024034,-0.00435
0.56,0.018603,0.004657
0.565,-0.029354,-0.000351
0.57,0.020973,0.021265
0.575,0.008425,0.003093
0.58,-0.018603,-0.008432
0.585,0.000704,0.005032
0.59,0.008703,-0.004782
0.595,-0.017279,-0.007778
0.6,-0.017355,0.006434
0.605,-0.034684,-0.003333
0.61,0.006748,0.01522
0.615,0.001069,0.010013
0.62,-0.005985,-0.007444
0.625,-0.010116,0.015273
0.63,0.014913,0.004874
0.635,0.049954,-0.000323
0.64,0.009305,0.003076
0.645,-0.003328,0.023162
0.65,0.022599,-0.013995
0.655,-0.005998,0.004283
0.66,0.011748,-0.013484
0.665,-0.033833,-0.019064
0.67,-0.001067,-0.001032
0.675,0.005178,-0.007697
0.68,-0.018364,-0.02023
0.685,0.004938,0.003701
0.69,0.014895,0.007908
0.695,-0.002861,0.013493
0.7,-0.002046,-0.006608
0.705,-0.007809,-0.005848
0.71,-0.032486,0.001563
0.715,0.003748,-0.003623
0.72,-0.010708,0.003718
0.725,0.025753,0.000383
0.73,-0.007615,-0.005914
0.735,-0.001046,-0.012648
0.74,-0.001879,0.000612
0.745,0.02767,0.009435
0.75,0.01551,-0.007129
0.755,0.010049,-0.011394
0.76,0.004679,0.004187
0.765,-0.011496,0.019994
0.77,0.008511,-0.019027
0.775,0.008293,-0.004074
0.78,2.1e-05,0.004658
0.785,0.005858,-0.020392
0.79,-0.017375,0.007726
0.795,0.019518,0.019032
0.8,0.027048,-0.020555
0.805,0.011542,-0.019163
0.81,0.024204,0.002533
0.815,-0.017118,0.020099
0.82,0.00966,-0.018911
0.825,0.004402,-0.007311
0.83,0.001669,-0.004652
0.835,0.020602,-0.014233
0.84,0.004761,0.018142
0.845,-0.012404,0.002106
0.85,0.00303,-0.006897
0.855,0.009718,0.000971
0.86,-0.014157,0.01762
0.865,0.011874,-0.001671
0.87,-0.00955,-0.007844
0.875,0.018464,-0.001465
0.88,0.006892,-0.001845
0.885,0.009246,-0.00116
0.89,0.011458,-0.001832
0.895,0.012444,0.006724
0.9,-0.001749,-0.008598
0.905,-0.014102,-0.007407
0.91,-0.014767,0.008658
0.915,-0.000699,0.015701
0.92,0.03419,0.000242
0.925,-0.02322,-0.003815
0.93,-0.00113,-0.014884
0.935,-0.003757,0.002869
0.94,-0.006891,-0.007684
0.945,-0.011381,0.017867
0.95,-0.002395,-0.008299
0.955,-0.005593,0.009543
0.96,-0.01027,0.004818
0.965,0.010918,0.007491
0.97,0.020995,-0.005505
0.975,0.016991,-0.007929
0.98,-0.005948,0.011961
0.985,0.012336,2.1e-05
0.99,-0.017871,0.005617
0.995,-0.009456,-0.009239
1.0,-0.009722,0.002465
1.005,-0.031815,0.003608
1.01,0.002609,-0.005845
1.015,0.015554,0.006114
1.02,-0.009094,-0.0067
1.025,0.010427,-0.015161
1.03,-0.004989,-0.00631
1.035,0.001048,0.002111
1.04,0.000552,0.011348
1.045,0.003421,-0.00315
1.05,-0.018163,0.007218
1.055,0.007922,0.014508
1.06,-0.011212,0.000264
1.065,-0.00088,-0.000876
1.07,0.000156,-0.017145
1.075,0.012375,0.006532
1.08,0.016957,0.022496
1.085,-0.004785,-0.000361
1.09,0.000147,0.019422
1.095,-0.025968,0.004858
1.1,-0.022062,-0.025816
1.105,-0.030312,-0.013818
1.11,0.016035,-0.008684
1.115,-0.003412,-0.011635
1.12,0.009164,-0.01102
1.125,0.019765,-0.009931
1.13,-0.011472,0.001227
1.135,0.000371,0.014247
1.14,0.001806,-0.012078
1.145,-0.008405,-0.005728
1.15,0.010876,0.003838
1.155,-0.001791,0.008696
1.16,-0.007927,-0.001362
1.165,0.002711,0.015282
1.17,-0.001478,-0.003508
1.175,-0.015688,0.006861
1.18,-0.008815,0.003437
1.185,-0.028524,0.010432
1.19,-0.019979,-0.007773
1.195,0.015879,-0.013345
1.2,-0.001192,0.000743
1.205,-0.014978,0.013429
1.21,0.022482,-0.019716
1.215,-0.021735,0.008082
1.22,-0.019545,-0.003886
1.225,0.001943,0.006919
1.23,-0.003349,0.000952
1.235,-0.011651,0.012924
1.24,-0.00743,0.003397
1.245,-0.007675,0.001063
1.25,-0.002522,-0.001625
1.255,-0.015207,0.007964
1.26,0.021211,0.002431
1.265,0.010985,0.008381
1.27,0.01392,0.003034
1.275,0.003184,0.00864
1.28,0.001032,-0.009739
1.285,0.000358,-0.018884
1.29,-8.9e-05,0.004134
1.295,0.01854,0.001513
1.3,0.013922,-5e-06
1.305,-0.015352,-0.014114
1.31,-0.014546,-0.013661
1.315,0.009506,-0.002076
1.32,0.008555,0.000734
1.325,0.015661,0.010602
1.33,-0.00968,-0.002743
1.335,-0.007992,-0.016213
1.34,0.010128,0.011888
1.345,-9.6e-05,-0.004932
1.35,0.016364,-0.02345
1.355,0.002662,0.001433
1.36,-0.008563,0.013916
1.365,0.014561,-0.002612
1.37,-0.0013,-0.00388
1.375,-0.007682,-0.013082
1.38,0.020699,0.01028
1.385,0.011972,-0.010943
1.39,0.031213,0.019802
1.395,0.002821,-0.009042
1.4,-0.012996,0.004185
1.405,-0.013695,-0.000342
1.41,0.01633,-0.015068
1.415,0.030086,0.015667
1.42,-0.018556,-0.014136
1.425,-0.004251,-0.010311
1.43,-0.003956,-0.025812
1.435,-0.003431,0.018029
1.44,-0.016749,-0.002731
1.445,-0.022344,0.006382
1.45,-0.00338,0.019407
1.455,0.003103,-0.003722
1.46,0.008254,-0.005062
1.465,-0.02009,0.003019
1.47,-0.002623,0.001663
1.475,0.005632,-0.005103
1.48,0.006324,0.017377
1.485,-0.016617,0.017374
1.49,-0.003642,-0.007666
1.495,0.036408,0.00155
1.5,0.020556,0.008176
1.505,-0.025209,0.001208
1.51,-0.00788,-0.013418
1.515,-0.026576,0.001023
1.52,0.008854,0.003907
1.525,-0.004587,-0.007985
1.53,-0.014803,-0.005552
1.535,-0.015496,-0.002033
1.54,-0.000343,-0.00896
1.545,-0.003481,-0.007603
1.55,-6.7e-05,0.005071
1.555,0.002672,0.004722
1.56,-0.02478,-0.003787
1.565,0.004151,0.006412
1.57,-0.02397,0.001592
1.575,0.018096,-0.001786
1.58,-0.001421,0.004505
1.585,0.003707,0.006746
1.59,0.001086,0.001525
1.595,-0.011737,-0.001704
1.6,0.018797,-0.002042
1.605,-0.002528,-0.004915
1.61,0.011808,-0.008547
1.615,0.013658,-0.00937
1.62,-0.015867,0.002059
1.625,0.001953,0.002976
1.63,0.015938,-0.004125
1.635,0.006645,-0.009098
1.64,0.018888,0.006325
1.645,0.008048,0.001879
1.65,-0.011784,-0.003274
1.655,0.007527,-0.000192
1.66,0.001856,-0.013598
1.665,0.002716,-0.006919
1.67,-0.01625,-0.001547
1.675,-0.027848,0.006986
1.68,0.01278,-0.000534
1.685,-0.014907,-0.009454
1.69,-0.002267,-0.024237
1.695,0.002707,0.006644
1.7,-0.004678,-0.004944
1.705,0.00273,0.003506
1.71,0.016412,0.000184
1.715,-0.010346,-0.004613
1.72,0.002729,0.015562
1.725,-0.004804,-0.010525
1.73,-0.013052,-0.020963
1.735,0.004947,-0.013613
1.74,-0.018503,-0.01976
1.745,-0.01677,0.005684
1.75,-0.01967,-0.017496
1.755,0.002674,-0.003412
1.76,0.006483,0.007406
1.765,-0.000127,-0.012978
1.77,-0.001857,0.005003
1.775,-0.008745,-0.014375
1.78,0.016539,-0.004152
1.785,-0.006138,0.00016
1.79,0.015457,0.002636
1.795,-0.004998,0.006821
1.8,0.032205,0.013878
1.805,0.010093,-0.011223
1.81,0.056281,-0.011987
1.815,-0.005577,-0.006999
1.82,0.024403,0.004202
1.825,-0.021407,0.002676
1.83,0.008204,-0.003185
1.835,-0.018303,-0.00725
1.84,-0.006553,0.000227
1.845,-0.007799,0.007352
1.85,-0.014249,-0.017314
1.855,-0.011091,0.013489
1.86,-0.008597,0.023408
1.865,0.007372,-0.011644
1.87,-0.012514,0.002434
1.875,-0.017665,0.023746
1.88,-0.014863,0.006809
1.885,0.021902,-0.001092
1.89,-0.014938,-0.002731
1.895,0.005433,0.008758
1.9,0.000851,-0.014002
1.905,0.000635,-0.006734
1.91,-0.032749,-0.006976
1.915,-0.021487,0.005869
1.92,0.029162,0.018588
1.925,-0.008598,-0.004674
1.93,0.010332,0.010613
1.935,-0.006281,-0.001426
1.94,0.033104,-0.001075
1.945,-0.00728,0.001199
1.95,0.008696,-0.010216
1.955,-0.003726,-0.011664
1.96,-0.004174,0.018769
1.965,0.011126,-0.000925
1.97,-0.013997,-0.003114
1.975,0.015761,-0.005617
1.98,0.021756,-0.013736
1.985,-0.004351,0.017428
1.99,-0.030118,0.011884
1.995,-0.027771,-0.000901
2.0,-0.002588,0.008243
2.005,-0.047318,-0.019178
2.01,-0.00849,0.000369
2.015,-0.013398,-0.002209
2.02,-0.017793,-0.004013
2.025,-0.012701,0.00244
2.03,0.008721,0.014329
2.035,-0.009846,-0.00318
2.04,0.000716,-0.002949
2.045,-0.00078,-0.015622
2.05,0.005576,-0.009152
2.055,-0.014354,-0.015881
2.06,0.017415,-0.001406
2.065,0.017242,0.002723
2.07,-0.02555,-0.010837
2.075,0.011369,-0.007657
2.08,-0.016355,-0.001794
2.085,-0.002655,-0.010119
2.09,-0.004892,-0.004785
2.095,-0.03885,0.005027
2.1,-0.012171,0.013044
2.105,-0.017252,-0.015796
2.11,0.017814,-0.015851
2.115,-0.009543,0.005973
2.12,-0.004945,-0.016555
2.125,0.002821,-0.001943
2.13,0.019258,0.005886
2.135,0.045536,-0.016459
2.14,-0.000325,-0.010667
2.145,0.017321,0.008218
2.15,0.011311,-0.007773
2.155,-0.011177,-0.020297
2.16,0.025643,0.005082
2.165,-0.003913,0.009335
2.17,0.011264,0.009753
2.175,-0.024353,-0.007138
2.18,0.002932,0.003554
2.185,0.014359,-0.010086
2.19,0.001908,0.022054
2.195,0.010379,0.008706
2.2,-0.000288,0.007676
2.205,0.02706,0.001066
2.21,0.01836,-0.008751
2.215,0.008851,0.009042
2.22,-0.01128,0.010981
2.225,-0.010129,-0.008052
2.23,-1.8e-05,0.01932
2.235,0.004637,0.009358
2.24,-0.010977,0.000775
2.245,-0.017648,-0.005711
2.25,0.012535,-0.000384
2.255,0.021769,-0.002024
2.26,-0.002969,0.012767
2.265,-0.009729,-0.015198
2.27,0.019519,0.004142
2.275,-0.032478,0.000445
2.28,-0.006057,0.017448
2.285,-0.010935,-0.005808
2.29,-0.013656,-0.010541
2.295,-0.010507,-0.014359
2.3,-0.015468,-0.016066
2.305,-0.022459,-0.015597
2.31,-0.007817,-0.006837
2.315,-0.018397,0.004783
2.32,-0.000721,-0.00432
2.325,-0.00696,0.015929
2.33,0.003597,0.004754
2.335,-0.038791,-0.006537
2.34,-0.032565,-0.004262
2.345,0.0056,-0.006743
2.35,0.007779,-0.010227
2.355,0.008637,-0.015536
2.36,-0.003925,0.004198
2.365,0.008039,-0.001273
2.37,0.029096,-0.004144
2.375,-0.006765,-0.027595
2.38,0.026534,-0.00369
2.385,-0.01764,0.013209
2.39,0.018533,0.001083
2.395,-0.021524,0.00419
2.4,-0.009321,-0.011708
2.405,0.015651,-0.021326
2.41,0.008507,0.004594
2.415,0.030765,0.003252
2.42,-0.030876,-0.008361
2.425,0.00097,0.003556
2.43,0.014712,-0.019597
2.435,-0.004949,0.009699
2.44,0.02316,0.01861
2.445,-0.005853,0.010976
2.45,0.025676,0.011981
2.455,0.010855,0.008278
2.46,-0.011848,-0.014472
2.465,0.014743,-0.003471
2.47,-0.000422,-0.005787
2.475,-0.005894,0.002327
2.48,-0.015328,0.000685
2.485,0.003691,-0.000774
2.49,-0.011154,0.007866
2.495,0.02809,-0.006012
2.5,0.018517,0.008893
2.505,-0.039799,-0.007612
2.51,-0.009538,0.007818
2.515,0.002827,0.004744
2.52,0.009544,-0.008989
2.525,-0.011198,-0.012229
2.53,-0.002554,-0.001191
2.535,0.002568,-0.007273
2.54,0.013598,0.009171
2.545,0.023198,0.007113
2.55,0.002783,0.006724
2.555,0.009146,-0.006518
2.56,0.019341,0.017185
2.565,0.029654,0.000352
2.57,0.004864,0.004164
2.575,-3.8e-05,0.006193
2.58,-0.001818,-0.001938
2.585,0.026385,0.001647
2.59,0.001005,0.00882
2.595,0.002255,0.002916
2.6,-0.000953,-0.012204
2.605,-0.000465,-0.011369
2.61,0.003152,-0.011814
2.615,0.013751,0.007492
2.62,0.004206,-0.001001
2.625,0.006245,-0.01965
2.63,-0.016452,-0.001487
2.635,0.005179,-0.000794
2.64,-0.015069,0.001334
2.645,-0.006806,-0.010686
2.65,0.004943,-0.0021
2.655,0.017947,0.006655
2.66,0.01102,0.003217
2.665,-0.012678,-0.009356
2.67,-0.022067,0.02879
2.675,-0.016192,-0.002098
2.68,-0.005406,-0.002811
2.685,-0.008761,-0.018683
2.69,-0.014973,-0.013907
2.695,-0.001902,-0.006842
2.7,-0.010308,0.002159
2.705,-0.008742,0.009321
2.71,-0.005793,0.002252
2.715,-0.019879,0.006569
2.72,-0.006078,0.004088
2.725,0.00495,-0.001734
2.73,0.003262,-0.003853
2.735,0.020192,0.009343
2.74,0.007237,-0.011801
2.745,-0.01649,-0.006639
2.75,-0.003675,0.00448
2.755,-0.013448,0.011771
2.76,5.4e-05,-0.020128
2.765,-0.00713,-0.025852
2.77,-0.011276,-0.005491
2.775,-0.009156,-0.003253
2.78,-0.005912,-0.005937
2.785,0.022537,0.012149
2.79,-0.017128,0.012539
2.795,-0.024321,-0.008146
2.8,0.022878,-0.022396
2.805,0.008622,-0.012535
2.81,-0.00216,-0.001802
2.815,0.025458,-0.008106
2.82,-0.001035,0.00627
2.825,-0.003777,-0.008221
2.83,-0.000888,0.000935
2.835,0.013261,-0.009431
2.84,-0.006737,0.003229
2.845,-0.002508,-0.001853
2.85,-0.000255,-0.006958
2.855,-0.011995,0.004407
2.86,-0.016427,0.011654
2.865,0.00326,-0.012765
2.87,0.004245,0.001673
2.875,0.011432,0.011588
2.88,-0.005496,-0.007078
2.885,-0.00909,-0.009811
2.89,-0.011197,0.002845
2.895,0.000229,-0.004914
2.9,-0.011074,0.003479
2.905,-0.007524,-0.010402
2.91,-0.002275,-0.002645
2.915,-0.016051,0.008272
2.92,0.01269,0.000409
2.925,0.001966,0.005273
2.93,-0.000464,0.008913
2.935,0.02484,0.000805
2.94,0.006604,0.008735
2.945,-0.005071,-0.011283
2.95,0.01359,-0.015688
2.955,0.026833,0.008704
2.96,0.002815,0.000511
2.965,0.02627,-0.009462
2.97,-0.017403,-0.005981
2.975,-0.003927,-0.010065
2.98,0.002308,0.001359
2.985,-0.012208,0.016031
2.99,-0.020881,-0.012767
2.995,0.005642,-0.002075
3.0,0.006266,-0.00619
3.005,-0.0155,-0.006455
3.01,-0.010254,0.00525
3.015,-0.007199,0.007614
3.02,0.008821,0.010406
3.025,0.013511,0.007844
3.03,0.011548,-0.005167
3.035,-0.003928,-0.018301
3.04,0.004376,-0.006738
3.045,0.006023,0.005275
3.05,-0.020281,-0.010138
3.055,-0.00524,-0.005176
3.06,0.002505,-0.011554
3.065,0.000708,-0.016885
3.07,-0.032327,0.007167
3.075,-0.01958,-0.005599
3.08,-0.02126,-0.014089
3.085,-0.005983,-0.004101
3.09,0.014739,0.004495
3.095,-0.003917,0.007577
3.1,0.016748,0.004113
3.105,-0.006095,0.010186
3.11,0.026528,0.006605
3.115,0.02656,0.009266
3.12,0.012733,-0.010902
3.125,-0.016703,-0.000495
3.13,-0.025042,-0.00593
3.135,0.01301,-0.006652
3.14,0.007998,-0.013513
3.145,-0.007405,0.010234
3.15,0.003128,0.002903
3.155,0.025571,0.012968
3.16,-0.013153,0.013179
3.165,-0.009229,-0.000176
3.17,0.000228,0.01073
3.175,-0.016939,0.004519
3.18,0.00786,0.008115
3.185,-0.003156,0.010034
3.19,-0.010673,0.011471
3.195,0.005284,-0.014001
3.2,0.006119,0.001793
3.205,-0.005335,-0.007363
3.21,-0.003603,-0.014422
3.215,0.025361,-0.011283
3.22,-0.009919,0.011449
3.225,0.008775,0.007202
3.23,0.022751,-0.003121
3.235,-0.015697,0.008443
3.24,0.011944,-0.003269
3.245,-0.018984,0.012392
3.25,0.008638,-0.013735
3.255,0.011699,-0.01441
3.26,-0.007239,-0.011233
3.265,-0.009567,-0.008333
3.27,-0.0092,0.007243
3.275,0.004419,0.006287
3.28,0.016385,-0.003727
3.285,0.001198,0.005382
3.29,0.025601,0.008991
3.295,0.020723,0.01019
3.3,0.015859,-0.017847
3.305,0.013213,0.002129
3.31,0.000813,-0.005273
3.315,-0.006379,0.004162
3.32,0.0126,-0.014978
3.325,0.003272,-0.005607
3.33,-0.014262,0.003926
3.335,-0.004931,-0.00659
3.34,-0.011537,0.002813
3.345,-0.000151,-0.010916
3.35,-0.012615,-0.001825
3.355,0.006077,-0.010497
3.36,0.007322,-0.00824
3.365,0.040916,-0.00941
3.37,-0.011852,0.00194
3.375,-0.013536,0.008276
3.38,0.027021,-0.003876
3.385,0.002592,-0.005178
3.39,-0.0,0.014317
3.395,0.013414,-0.009042
3.4,0.023189,0.011621
3.405,0.007296,-0.006592
3.41,0.000986,-0.007955
3.415,0.007014,-0.003165
3.42,-0.033524,0.009262
3.425,0.002872,0.010785
3.43,-0.002043,0.001885
3.435,0.01673,0.003878
3.44,0.00432,0.032144
3.445,-0.002535,0.001692
3.45,0.02601,-0.00805
3.455,-0.015615,-0.014321
3.46,0.008005,0.006256
3.465,0.011122,-0.013536
3.47,0.015088,0.011973
3.475,-0.00146,0.000326
3.48,0.010134,0.003671
3.485,0.00963,-0.010861
3.49,-0.002619,-0.012125
3.495,0.009469,0.005302
3.5,-0.001482,0.002968
3.505,-0.023348,0.008579
3.51,-0.007009,0.001291
3.515,0.016731,-0.007565
3.52,0.017959,0.001241
3.525,0.000423,0.00556
3.53,-0.018705,0.005941
3.535,0.000923,0.010363
3.54,-0.003252,-0.003633
3.545,0.005545,-0.000594
3.55,-0.01761,-0.00194
3.555,0.019014,-0.000931
3.56,-0.013057,0.007159
3.565,-0.027802,-0.021203
3.57,-6.2e-05,0.001809
3.575,0.003306,-0.008928
3.58,-0.002257,-0.013987
3.585,0.003293,-0.016153
3.59,-0.002239,0.002616
3.595,-0.026349,-0.005225
3.6,0.011822,0.01549
3.605,-0.022559,0.003399
3.61,-0.018539,-0.013453
3.615,0.023941,0.006682
3.62,-0.012063,0.00219
3.625,0.009629,0.001813
3.63,0.033709,0.006058
3.635,-0.044895,-0.002902
3.64,-0.011049,-0.002041
3.645,0.000202,-0.006511
3.65,-0.016274,0.013634
3.655,0.00896,-0.006707
3.66,0.010195,0.006752
3.665,0.01901,-0.010553
3.67,0.011698,-0.006078
3.675,0.017326,-0.001924
3.68,-0.034077,0.000354
3.685,-0.026762,-0.002171
3.69,-0.000873,-0.004013
3.695,-0.022304,-0.011157
3.7,-0.012669,-0.002481
3.705,0.019327,0.007091
3.71,-0.007083,0.012739
3.715,-0.020521,0.00685
3.72,-0.002629,0.002363
3.725,0.009577,-0.006796
3.73,0.012017,-9.3e-05
3.735,0.036177,-0.003043
3.74,0.019038,0.006471
3.745,-0.017612,0.013606
3.75,-0.015906,-0.02232
3.755,0.0128,0.01069
3.76,0.00078,-0.00261
3.765,0.023755,0.007119
3.77,-0.009838,0.007315
3.775,-0.018649,-0.00559
3.78,-0.015767,-0.022
3.785,-0.017659,0.012223
3.79,-0.016467,-0.0055
3.795,-0.017415,0.008656
3.8,1.8e-05,0.004907
3.805,-0.001585,-0.01171
3.81,-0.014609,0.008373
3.815,-0.000861,0.007744
3.82,-0.047439,0.011101
3.825,-0.00741,0.021729
3.83,-0.007661,0.000283
3.835,0.009906,-0.008758
3.84,0.013091,-0.006452
3.845,0.019337,0.007932
3.85,0.007435,-0.007242
3.855,-0.003159,0.002999
3.86,-0.0305,-0.005517
3.865,0.014071,-0.012682
3.87,0.019185,-0.006283
3.875,0.004849,-0.011477
3.88,0.007266,0.004627
3.885,0.017046,0.013541
3.89,0.018803,0.002089
3.895,-0.018392,0.013238
3.9,-0.019562,-0.004387
3.905,0.011057,0.004436
3.91,0.023896,-4.1e-05
3.915,-0.025351,-0.002753
3.92,0.002611,-0.003506
3.925,0.021187,-0.002476
3.93,-0.021538,0.004668
3.935,-0.017215,0.016999
3.94,0.004051,-0.014033
3.945,0.016191,0.023692
3.95,-0.030061,0.009031
3.955,0.00726,0.001757
3.96,0.00515,0.004919
3.965,-0.010395,0.01411
3.97,-0.020243,0.019586
3.975,0.022915,-0.011861
3.98,-8.1e-05,0.014199
3.985,-0.007365,-0.001624
3.99,-0.006036,0.011675
3.995,-0.009115,-9.8e-05
4.0,0.008103,-0.002076
4.005,-0.012996,-0.013415
4.01,-0.022774,-0.011798
4.015,-0.025808,-0.007269
4.02,0.004503,0.000541
4.025,-0.012399,-0.01018
4.03,-0.014901,-0.013879
4.035,-0.018538,0.007144
4.04,-0.021069,0.000173
4.045,-0.009271,0.024279
4.05,-0.026954,0.001933
4.055,-0.005006,-0.007711
4.06,0.004728,0.001556
4.065,-0.016034,0.004263
4.07,0.005838,0.013095
4.075,-0.00915,0.014704
4.08,-0.002952,-0.01976
4.085,0.007846,-0.000816
4.09,-0.013235,0.009332
4.095,-0.007074,0.010169
4.1,-0.001241,0.007503
4.105,0.010192,0.004732
4.11,-0.015481,0.009197
4.115,0.000326,0.020023
4.12,0.00718,0.007511
4.125,-0.011473,-0.004061
4.13,0.001451,-0.011705
4.135,-0.017554,-0.001086
4.14,-0.001168,0.002021
4.145,0.016757,-0.004003
4.15,0.010213,-0.001446
4.155,-0.00291,0.002571
4.16,-0.031016,0.000664
4.165,-0.009574,-0.009298
4.17,-0.028305,-0.004429
4.175,-0.028162,0.008701
4.18,-0.00359,-0.016821
4.185,-0.010103,0.00755
4.19,-0.008923,-0.002812
4.195,-0.005538,-0.001283
4.2,-0.025497,-0.000455
4.205,-0.008371,0.029538
4.21,-0.003195,-0.004556
4.215,0.014827,-0.00156
4.22,0.0038,-0.008741
4.225,0.023328,-0.006277
4.23,0.00563,0.011324
4.235,-0.004568,-1e-06
4.24,0.008798,0.006827
4.245,-0.016351,0.001815
4.25,-0.014181,-0.007454
4.255,-0.009726,0.01216
4.26,0.023949,0.026055
4.265,-0.000848,-0.008414
4.27,-0.014542,0.016075
4.275,-0.023076,-0.00317
4.28,-0.008491,0.0175
4.285,-0.0152,0.011017
4.29,0.0197,-0.001668
4.295,0.006982,-0.015387
4.3,-0.001323,-0.00215
4.305,-0.038694,0.004154
4.31,0.005327,-0.016934
4.315,-0.021184,-0.007493
4.32,-0.007938,-0.003064
4.325,-0.014372,-0.010079
4.33,0.004598,-0.004752
4.335,-0.001602,-0.002297
4.34,0.006858,-0.001543
4.345,0.012923,0.00103
4.35,0.013336,0.012471
4.355,-0.021907,0.00922
4.36,0.026742,-0.009725
4.365,-0.000478,-0.003572
4.37,0.006613,0.0052
4.375,-0.010039,0.013126
4.38,-0.01285,-0.001383
4.385,0.015354,0.019534
4.39,-0.00769,0.007823
4.395,0.003301,-0.015824
4.4,-0.014328,-0.012048
4.405,-0.00755,-0.004168
4.41,0.000419,0.012777
4.415,0.006337,0.026531
4.42,-0.003651,0.007893
4.425,0.006216,0.015066
4.43,-0.005681,0.008453
4.435,0.024436,-0.007208
4.44,-0.001123,0.005043
4.445,-0.006522,-0.008752
4.45,0.027491,-0.002297
4.455,0.026011,-0.005084
4.46,-0.003106,0.007971
4.465,-0.00309,-0.008989
4.47,-0.010799,0.002727
4.475,-0.009992,0.000881
4.48,-0.033859,-0.005581
4.485,-0.002705,-0.005126
4.49,-0.014904,-0.008835
4.495,0.001058,0.014871
4.5,-0.020976,-0.002763
4.505,0.014656,0.003345
4.51,0.000199,-0.001011
4.515,-0.029244,0.012911
4.52,0.012073,0.024486
4.525,0.005438,-0.002367
4.53,-0.005924,-0.023158
4.535,0.006889,-0.004192
4.54,-0.013996,0.007052
4.545,0.027438,-0.00917
4.55,0.03345,0.01782
4.555,-0.016862,-0.003136
4.56,-0.00962,0.001306
4.565,-0.011185,0.001969
4.57,0.004923,-0.01253
4.575,0.019786,-0.016754
4.58,0.019081,0.007712
4.585,-0.005053,0.006758
4.59,0.000879,-0.024811
4.595,0.021789,0.001046
4.6,0.00946,0.005791
4.605,0.018496,-0.009548
4.61,0.010844,-0.004204
4.615,0.005783,0.004293
4.62,-0.016345,0.006371
4.625,-0.005404,-0.006018
4.63,0.004341,-0.002952
4.635,0.017066,0.00608
4.64,-0.01953,-0.000441
4.645,-0.007371,-0.000621
4.65,0.015111,0.006475
4.655,-0.016469,-0.000899
4.66,0.008462,-0.014988
4.665,-0.000443,-0.013105
4.67,0.044366,0.012539
4.675,0.003585,-0.000967
4.68,0.004264,-0.027488
4.685,0.014936,-0.000375
4.69,-0.015906,0.010763
4.695,-0.007569,-0.007435
4.7,-0.023406,-0.002729
4.705,0.012972,0.001384
4.71,-0.026739,-0.003392
4.715,-0.004883,0.023562
4.72,0.006714,-0.009404
4.725,0.01139,0.001223
4.73,-0.017357,-0.008264
4.735,-0.007019,0.005282
4.74,0.018841,0.005401
4.745,0.000934,-0.007622
4.75,-0.001741,0.009431
4.755,0.007365,0.010404
4.76,0.028671,-0.013135
4.765,-0.033299,0.003197
4.77,0.009794,-0.005196
4.775,-0.01097,0.015757
4.78,0.003667,0.018025
4.785,-0.024789,-0.004764
4.79,0.012846,0.011392
4.795,0.020491,0.00317
4.8,0.013964,0.022037
4.805,0.03222,0.023985
4.81,-0.006553,0.018412
4.815,0.067676,0.015817
4.82,0.053156,0.019128
4.825,0.043788,0.038065
4.83,0.031179,0.031223
4.835,0.048426,0.028755
4.84,0.037755,0.02871
4.845,0.053034,0.039768
4.85,0.068128,0.05523
4.855,0.082786,0.053544
4.86,0.07246,0.038726
4.865,0.117436,0.018166
4.87,0.142616,0.080093
4.875,0.081031,0.057322
4.88,0.169863,0.046606
4.885,0.12136,0.067104
4.89,0.198311,0.094072
4.895,0.162474,0.079232
4.9,0.214842,0.093508
4.905,0.231217,0.140061
4.91,0.24642,0.082552
4.915,0.273873,0.11669
4.92,0.288059,0.119565
4.925,0.247336,0.148596
4.93,0.293606,0.099609
4.935,0.307494,0.117976
4.94,0.330261,0.160772
4.945,0.306711,0.185007
4.95,0.380491,0.173629
4.955,0.448406,0.133096
4.96,0.473372,0.204151
4.965,0.516502,0.186996
4.97,0.344506,0.185583
4.975,0.447639,0.188572
4.98,0.366591,0.252515
4.985,0.51403,0.27898
4.99,0.458282,0.185222
4.995,0.38124,0.250141
5.0,0.466105,0.18991
5.005,0.400214,0.23225
5.01,0.433306,0.155037
5.015,0.480818,0.15916
5.02,0.428964,0.156668
5.025,0.431135,0.18357
5.03,0.411603,0.210036
5.035,0.375783,0.182415
5.04,0.455662,0.197765
5.045,0.367593,0.204039
5.05,0.482715,0.137143
5.055,0.332837,0.164063
5.06,0.367606,0.171392
5.065,0.33012,0.156879
5.07,0.290495,0.14289
5.075,0.324704,0.128695
5.08,0.241409,0.123349
5.085,0.281448,0.094087
5.09,0.22967,0.14131
5.095,0.252022,0.115073
5.1,0.187362,0.105632
5.105,0.21474,0.086103
5.11,0.149892,0.057436
5.115,0.17166,0.056856
5.12,0.151108,0.064027
5.125,0.111302,0.060464
5.13,0.108411,0.037053
5.135,0.115003,0.052503
5.14,0.100942,0.032788
5.145,0.054735,0.05321
5.15,0.095707,0.039146
5.155,0.076459,0.027499
5.16,0.046964,0.036004
5.165,0.058749,0.024063
5.17,0.025472,0.015619
5.175,0.040141,0.005075
5.18,0.034867,0.019706
5.185,0.059318,0.031026
5.19,0.01397,0.014021
5.195,0.000807,0.017285
5.2,0.024178,0.002645
5.205,0.014161,0.002041
5.21,0.015036,0.010747
5.215,0.014592,0.01659
5.22,0.00642,0.005268
5.225,-0.004,-0.001976
5.23,0.007924,-0.014893
5.235,0.012406,-0.001566
5.24,0.001979,0.022005
5.245,-0.013101,-0.006162
5.25,0.01536,-0.010251
5.255,-0.003155,0.014493
5.26,0.011884,0.006991
5.265,-0.013594,0.000214
5.27,0.009808,0.013602
5.275,0.020241,0.000538
5.28,-0.005412,0.01052
5.285,0.008983,0.000553
5.29,-0.016918,-0.000159
5.295,0.009812,-0.009557
5.3,0.001255,-0.008083
5.305,0.008464,0.009732
5.31,-0.006718,-0.001378
5.315,0.006569,-0.008483
5.32,-0.003495,-0.012268
5.325,0.01217,-0.014536
5.33,-0.013106,0.00291
5.335,0.025985,-0.000617
5.34,-0.011813,-0.004857
5.345,0.00418,0.004751
5.35,0.013015,0.003404
5.355,-0.010427,0.013975
5.36,0.027416,-0.02264
5.365,0.025628,-0.004064
5.37,0.005253,-0.003859
5.375,-0.006758,-0.018226
5.38,-0.019639,0.000872
5.385,-0.020293,0.004212
5.39,-0.012051,-0.00079
5.395,0.012712,-0.002737
5.4,-0.002632,-0.016107
5.405,-0.003411,0.002813
5.41,-0.009355,0.002952
5.415,-0.010321,0.011188
5.42,-0.012623,0.012597
5.425,0.003517,-0.010844
5.43,-0.000514,0.000133
5.435,-0.003002,-0.004928
5.44,0.010948,-0.003283
5.445,-0.022492,0.015602
5.45,-0.007948,0.014572
5.455,-0.000201,-0.000447
5.46,0.003375,0.014927
5.465,0.018286,-0.027177
5.47,0.013307,0.004231
5.475,-0.011996,0.01902
5.48,0.000159,-0.005345
5.485,-0.001921,-0.000249
5.49,-0.003636,-0.013854
5.495,-0.011543,-0.018274
5.5,0.000308,-0.013344
5.505,-0.028766,0.017116
5.51,-0.003246,0.005044
5.515,-0.001061,0.004135
5.52,-0.019174,-0.004457
5.525,-0.02033,-0.010872
5.53,-0.010635,-0.018065
5.535,-0.006918,-0.007109
5.54,-0.017793,-0.001328
5.545,-0.00017,-0.00837
5.55,0.03018,0.007182
5.555,0.016825,-0.003284
5.56,0.013404,0.007656
5.565,-0.015278,-0.006822
5.57,0.043728,-0.004112
5.575,0.007303,-0.002146
5.58,0.012471,-0.009946
5.585,-0.015079,0.011343
5.59,0.002978,-0.024776
5.595,0.000351,-0.00182
5.6,0.01066,0.003211
5.605,0.005133,0.000875
5.61,0.004357,-0.011526
5.615,-0.012223,-0.008523
5.62,-0.020117,0.007883
5.625,0.016164,0.00614
5.63,-0.009018,-0.005371
5.635,-0.006598,0.011129
5.64,0.007899,0.017389
5.645,-0.014544,-0.002256
5.65,-0.01891,-0.014172
5.655,-0.002329,-0.003357
5.66,-0.007692,-0.015347
5.665,0.002952,-0.002839
5.67,0.013723,0.005505
5.675,-0.019676,0.003957
5.68,-0.008983,0.015325
5.685,-0.000444,-0.005035
5.69,-0.006098,-0.015009
5.695,0.019117,0.021194
5.7,-0.025947,-0.002518
5.705,-0.001656,-0.005943
5.71,0.018263,0.012474
5.715,-0.00368,0.020713
5.72,0.000492,-0.002419
5.725,0.004197,-0.00746
5.73,0.021797,0.006166
5.735,-0.005324,-0.001855
5.74,-0.013617,0.002625
5.745,-0.019405,3.2e-05
5.75,-0.007758,0.005671
5.755,0.015639,0.007869
5.76,-0.001839,-0.007096
5.765,-0.004495,-0.000166
5.77,0.007319,-0.005682
5.775,-0.014509,0.001734
5.78,0.020382,0.018723
5.785,0.011898,-0.009903
5.79,0.021129,-0.008457
5.795,-0.011559,0.004276
5.8,-0.020705,0.008017
5.805,-0.000804,0.003991
5.81,-0.012351,0.008464
5.815,0.007697,-0.003633
5.82,0.014179,-0.026603
5.825,0.005435,-0.001075
5.83,-0.011925,0.001772
5.835,0.007497,-0.00737
5.84,-0.001793,-0.000414
5.845,0.005893,0.012268
5.85,-0.006959,0.013169
5.855,-0.019563,0.003008
5.86,-0.025794,0.000718
5.865,0.010834,0.02023
5.87,0.00074,-0.007483
5.875,0.015397,0.000412
5.88,0.001475,0.00917
5.885,0.016391,-0.017321
5.89,0.000773,-0.000164
5.895,-0.016044,-0.016239
5.9,-0.001003,-0.004637
5.905,-0.01087,-0.001374
5.91,-0.005265,0.000176
5.915,0.023652,-0.000301
5.92,0.028206,0.012441
5.925,0.014514,-0.007285
5.93,-0.004402,-0.009197
5.935,0.006238,-0.000671
5.94,0.006625,0.003025
5.945,0.002518,-0.003569
5.95,-0.014595,-0.004417
5.955,0.010749,-0.001639
5.96,-0.0009,0.008678
5.965,0.007314,-0.014748
5.97,-0.001206,-0.008713
5.975,-0.000813,0.003903
5.98,0.007641,0.016638
5.985,-0.007512,-0.002949
5.99,0.00861,0.00962
5.995,-0.015471,0.006867
6.0,0.009982,-0.001504
6.005,-0.004217,0.007326
6.01,0.006408,0.004007
6.015,-0.010977,-0.017223
6.02,-0.00141,-0.002711
6.025,0.006872,-0.007645
6.03,0.00952,0.004096
6.035,-0.011102,0.00945
6.04,-0.005144,-0.006965
6.045,0.003763,-0.000147
6.05,-0.013576,0.006201
6.055,-0.000137,-0.007582
6.06,-0.026309,0.004264
6.065,0.001485,0.001194
6.07,0.020652,-0.024906
6.075,0.019038,0.013638
6.08,-0.014701,0.010147
6.085,-0.012179,-0.010425
6.09,-0.001521,0.018277
6.095,0.005425,0.000499
6.1,0.013285,-0.006225
6.105,0.022463,0.015706
6.11,0.006438,-0.007883
6.115,0.01608,0.002947
6.12,0.009655,0.011366
6.125,0.006547,-0.009025
6.13,0.022355,0.002793
6.135,0.004862,0.006151
6.14,0.004676,0.007479
6.145,0.002962,-0.001776
6.15,-0.008253,-0.005113
6.155,-0.004323,0.009894
6.16,-0.005053,-0.001111
6.165,-0.001516,0.005339
6.17,0.009735,0.019744
6.175,-0.020896,-0.002279
6.18,0.008595,-0.016851
6.185,0.02612,-0.001161
6.19,-0.01191,0.009708
6.195,-0.03297,0.002122
6.2,-0.014872,-0.000149
6.205,0.005611,0.007925
6.21,0.00617,0.020864
6.215,0.00093,-0.003419
6.22,0.018392,-0.000653
6.225,0.006273,-0.039373
6.23,0.006799,-0.000748
6.235,-0.006524,-0.006563
6.24,0.013547,-0.020417
6.245,0.047237,0.011541
6.25,0.005547,0.019004
6.255,0.00412,-0.00895
6.26,0.015406,-0.01636
6.265,0.009001,0.011981
6.27,0.008024,-0.014512
6.275,0.003077,-0.001231
6.28,-0.011133,-0.02312
6.285,-0.017782,-0.005007
6.29,0.016883,0.027532
6.295,0.012852,-0.007883
6.3,-0.006316,0.010822
6.305,0.009207,0.003909
6.31,0.003571,0.011993
6.315,0.033539,9.6e-05
6.32,0.002382,0.005044
6.325,-0.006932,-0.021926
6.33,0.007406,-0.007336
6.335,0.019749,0.001824
6.34,0.022461,-0.008576
6.345,0.016968,-0.016316
6.35,0.014065,-0.002372
6.355,0.014061,-0.003581
6.36,0.010237,0.005026
6.365,0.005747,0.004427
6.37,0.025207,-0.005613
6.375,0.021051,-0.003541
6.38,0.018104,0.023397
6.385,-0.011975,-0.02156
6.39,0.002456,-0.006917
6.395,-0.007897,-0.003293
6.4,-0.008007,0.01431
6.405,0.016881,0.011591
6.41,0.034682,-0.007708
6.415,-0.037452,0.020235
6.42,0.003757,-0.000557
6.425,-0.027044,-0.013517
6.43,0.010379,-0.001431
6.435,-0.032293,-0.009405
6.44,0.015737,0.012787
6.445,0.003212,0.02834
6.45,0.015401,0.018103
6.455,0.019999,0.008312
6.46,-0.020088,-0.016004
6.465,-0.01112,0.002584
6.47,1.6e-05,0.003747
6.475,-0.0003,0.004778
6.48,0.014813,7.9e-05
6.485,-0.00432,-0.026213
6.49,0.013083,-0.007733
6.495,-0.013637,0.008677
6.5,0.013777,0.0068
6.505,0.014295,-0.010941
6.51,-0.003438,-0.0055
6.515,0.025948,0.008638
6.52,-0.003659,0.008415
6.525,0.005621,-0.001174
6.53,0.007003,0.008506
6.535,-0.002132,-0.012505
6.54,0.005319,-0.002641
6.545,-0.01718,-0.007682
6.55,-0.003742,0.000272
6.555,0.008425,-0.002125
6.56,0.006749,-0.003734
6.565,0.008185,0.004031
6.57,0.008538,0.014371
6.575,-0.004243,-0.015933
6.58,-0.001168,0.008094
6.585,0.000374,0.003181
6.59,-0.02584,-0.008341
6.595,0.008081,0.007778
6.6,-0.011256,0.00367
6.605,-0.010665,-0.011524
6.61,0.001065,0.00217
6.615,0.005946,0.0073
6.62,0.025157,0.009487
6.625,-0.005413,0.009397
6.63,-0.022013,0.001007
6.635,0.015802,0.006792
6.64,0.012424,0.0191
6.645,-0.011111,0.007948
6.65,-0.0014,0.011147
6.655,0.001764,0.007821
6.66,0.023202,0.006309
6.665,-0.003147,-0.003677
6.67,-0.010411,0.010381
6.675,0.019685,-0.002443
6.68,-0.027141,-0.006335
6.685,0.00651,-0.009468
6.69,-0.029377,-0.004444
6.695,-0.030603,0.003254
6.7,-0.006016,0.000603
6.705,0.01945,-0.009079
6.71,-0.032219,-0.000284
6.715,0.007034,-0.014295
6.72,-0.005527,-0.003472
6.725,0.000417,-0.006155
6.73,0.039952,-0.002624
6.735,0.002798,-0.004848
6.74,-0.039647,0.013809
6.745,-0.047352,0.013568
6.75,-0.019821,-0.013589
6.755,-0.001633,0.021959
6.76,0.004794,-0.001913
6.765,-0.011516,0.006507
6.77,-0.005551,0.007138
6.775,-0.029452,0.005284
6.78,0.00477,-0.013602
6.785,-0.01549,-0.001474
6.79,-0.007298,0.0029
6.795,-0.02152,-0.008846
6.8,0.03171,-0.008424
6.805,-0.006392,-0.001771
6.81,-0.004177,0.012069
6.815,-0.008583,0.008549
6.82,-0.012832,0.007731
6.825,-0.003211,-0.001748
6.83,-0.001329,0.005502
6.835,-0.017902,-0.009705
6.84,0.030558,0.005065
6.845,-0.005413,0.006421
6.85,-0.000902,-0.022514
6.855,0.00242,-0.001219
6.86,0.005237,-0.007747
6.865,-0.003307,0.011421
6.87,-0.002263,-0.00429
6.875,0.005476,-0.003942
6.88,0.016018,-0.001745
6.885,0.005451,-0.007041
6.89,-0.018717,0.007193
6.895,0.00393,0.006374
6.9,0.01105,-0.014693
6.905,0.001797,-0.020058
6.91,0.00779,-0.010856
6.915,0.00701,0.00726
6.92,-0.008092,-0.00023
6.925,0.018335,-0.016539
6.93,0.009655,0.001184
6.935,0.014222,-0.016519
6.94,5.3e-05,0.011042
6.945,0.020387,-0.007693
6.95,-0.004193,0.018414
6.955,-0.021297,-0.000457
6.96,0.002661,0.001749
6.965,-0.014014,0.009645
6.97,0.013328,0.018161
6.975,-0.011895,-0.004817
6.98,0.016449,0.018153
6.985,-0.00015,-0.01528
6.99,-0.003241,0.009647
6.995,0.010172,0.011129
7.0,0.028874,-0.004313
7.005,-0.013567,-0.012027
7.01,-0.001842,0.010191
7.015,0.025908,0.002188
7.02,0.000221,-0.001329
7.025,0.018396,-0.00762
7.03,-0.001574,-0.000774
7.035,-0.000407,0.018082
7.04,-0.01338,0.024553
7.045,-0.00983,-0.008205
7.05,-0.009913,0.006487
7.055,-0.000211,0.011212
7.06,-0.012355,-0.016732
7.065,-0.005564,0.002798
7.07,-0.022046,-0.001065
7.075,0.008034,-0.008067
7.08,-0.01236,-0.010952
7.085,-0.002152,0.004563
7.09,0.041213,0.011652
7.095,-0.018926,-0.015368
7.1,-0.001654,0.01572
7.105,0.009857,-0.005273
7.11,0.015025,0.013774
7.115,0.021926,-0.010664
7.12,0.006561,-0.012812
7.125,-0.012082,-0.012786
7.13,-0.003929,-0.01436
7.135,0.011624,-0.000123
7.14,-0.012967,0.004854
7.145,0.022961,0.003454
7.15,-0.008755,-0.002839
7.155,-0.001562,-0.007015
7.16,-0.025676,-0.003785
7.165,0.018641,-0.008272
7.17,-0.028955,-0.000888
7.175,0.016542,-0.017224
7.18,0.002851,0.004114
7.185,0.008053,0.005571
7.19,0.009122,-0.015839
7.195,0.009241,0.013775
7.2,-0.003325,0.003714
7.205,-0.015216,0.01303
7.21,-0.009276,0.016495
7.215,-0.005699,0.006778
7.22,-0.008001,0.018778
7.225,-0.029582,0.003693
7.23,-0.031192,-0.012048
7.235,0.02838,0.00908
7.24,-0.030158,-6e-05
7.245,-0.009295,0.005698
7.25,0.027756,0.006539
7.255,0.00652,0.00508
7.26,-0.016388,0.007011
7.265,0.013816,-0.006124
7.27,-0.009637,0.0145
7.275,0.003137,-0.011373
7.28,-0.006361,-0.004575
7.285,-0.000968,-0.000727
7.29,-0.003739,0.016739
7.295,0.012484,0.01483
7.3,-0.02542,0.001111
7.305,0.017622,0.007254
7.31,-0.01019,-0.00756
7.315,0.0144,-0.002125
7.32,0.009725,0.001566
7.325,-0.001765,0.001205
7.33,-0.012444,0.017012
7.335,0.008223,0.013993
7.34,-0.007938,-0.005405
7.345,-0.004789,-0.008616
7.35,0.010172,0.007125
7.355,-0.007697,-0.003197
7.36,0.005649,-0.007526
7.365,-0.00614,0.015605
7.37,-0.011199,-0.005168
7.375,0.037571,-0.021264
7.38,-0.017766,0.017973
7.385,-0.006143,0.004998
7.39,0.031795,-0.00717
7.395,-0.008873,0.004108
7.4,-0.001137,-0.005249
7.405,-0.002,-0.013281
7.41,0.006986,0.008345
7.415,-0.002422,-0.002238
7.42,0.008232,-0.005382
7.425,-0.004622,-0.000683
7.43,0.02208,-0.000492
7.435,-0.001706,-0.001641
7.44,-0.005757,-0.009649
7.445,-0.013787,0.008604
7.45,-0.008537,0.000924
7.455,-0.007144,-0.013279
7.46,-0.006971,0.013969
7.465,-0.006219,-0.006764
7.47,-0.006418,-0.003346
7.475,0.003428,-0.004116
7.48,-0.001464,-0.004909
7.485,0.005363,0.003113
7.49,0.003175,0.006331
7.495,-0.001489,0.012129
7.5,0.006993,0.014878
7.505,-0.001196,0.002721
7.51,-0.010233,0.000156
7.515,0.01227,-0.003655
7.52,0.022383,0.000257
7.525,0.023748,-0.010488
7.53,-0.004153,-0.004964
7.535,0.015159,0.006421
7.54,-0.001146,-0.004558
7.545,-0.000403,0.007246
7.55,0.012536,-0.000596
7.555,-0.006706,0.001021
7.56,0.001939,0.002525
7.565,-0.006802,0.017405
7.57,-0.009432,0.015125
7.575,0.020905,0.009471
7.58,0.028111,0.005558
7.585,-0.00475,-0.005231
7.59,-0.010066,0.008373
7.595,-0.022209,-0.014224
7.6,0.022987,0.010129
7.605,0.006215,0.009233
7.61,0.011614,-0.001869
7.615,-0.02203,0.012831
7.62,0.006693,-0.013762
7.625,0.002134,-0.004687
7.63,-0.00173,-0.00328
7.635,0.008268,-0.002084
7.64,-0.017324,0.00673
7.645,0.007287,-0.014258
7.65,0.006137,0.008876
7.655,-0.002287,0.001877
7.66,-0.011465,-0.017501
7.665,0.007827,-0.000879
7.67,0.006444,-0.002348
7.675,-0.003905,0.001623
7.68,-0.00095,0.008663
7.685,-0.006358,-0.014444
7.69,0.002162,-0.013032
7.695,-0.03801,-0.010968
7.7,-0.006579,-0.007959
7.705,-0.02305,-0.002246
7.71,0.018247,0.008294
7.715,0.000124,0.009211
7.72,-0.006606,-0.00882
7.725,0.010177,-0.010836
7.73,0.00501,-0.000257
7.735,-0.005441,-0.004581
7.74,0.017058,-0.015894
7.745,0.004035,-0.002886
7.75,-0.011121,0.000389
7.755,0.004737,-0.000599
7.76,0.003676,0.014148
7.765,-0.009013,0.004179
7.77,-0.026079,0.00457
7.775,-0.028004,0.006314
7.78,-0.007128,0.001641
7.785,-0.021832,0.00024
7.79,0.01236,0.006198
7.795,-0.000259,-6.5e-05
7.8,0.017182,0.00736
7.805,-0.009371,-0.005798
7.81,-0.010198,-0.000356
7.815,-0.01741,-0.021584
7.82,-0.003275,0.002529
7.825,0.002796,0.01085
7.83,-0.019388,-0.005132
7.835,-0.021636,0.002458
7.84,-0.001569,-0.004808
7.845,0.000622,-0.007069
7.85,-0.01533,0.015805
7.855,0.012155,-0.001842
7.86,-0.023122,-0.002143
7.865,0.008614,0.001699
7.87,0.015137,0.012269
7.875,-0.001268,-0.004681
7.88,-0.007416,-0.004135
7.885,0.013568,-0.004241
7.89,-0.025212,0.00465
7.895,-0.001484,-0.004672
7.9,-0.029453,0.011701
7.905,0.010445,-0.011369
7.91,0.002277,-0.010837
7.915,-0.020409,-0.020987
7.92,0.01169,0.008799
7.925,-0.004648,-0.000598
7.93,0.026324,-0.007554
7.935,-0.017771,0.001275
7.94,0.008242,-0.002969
7.945,-0.021391,-0.007672
7.95,0.010275,0.007148
7.955,-0.02506,-0.012226
7.96,-0.014777,-0.000254
7.965,0.033102,-0.002858
7.97,0.000932,-0.007971
7.975,0.03878,-0.006019
7.98,-0.007676,0.001562
7.985,-0.019865,0.008088
7.99,-0.000125,-0.008427
7.995,-0.008937,-0.01894
8.0,-0.008333,-0.022746
8.005,-0.006757,-0.004956
8.01,-0.008835,-0.005829
8.015,-0.01263,0.01234
8.02,0.021588,-0.001696
8.025,0.017155,-0.003065
8.03,-0.004536,-0.008288
8.035,0.010462,0.006181
8.04,-0.019357,0.0016
8.045,-0.007755,-0.009019
8.05,-0.000385,-0.019188
8.055,-0.006509,0.018895
8.06,0.006535,-0.011356
8.065,0.008301,0.000886
8.07,-0.004812,-0.005858
8.075,1e-05,-0.005924
8.08,-0.002598,0.007395
8.085,0.012236,-0.012965
8.09,-0.007026,0.016069
8.095,0.026948,0.003698
8.1,0.024144,0.012082
8.105,-0.00198,-0.019963
8.11,-0.000918,-0.012822
8.115,0.002046,0.017462
8.12,0.003731,-0.007852
8.125,-0.01754,-0.01963
8.13,-0.02859,0.016268
8.135,0.012839,-0.00131
8.14,-0.002295,-0.00052
8.145,-0.000176,0.013921
8.15,0.005852,-0.019824
8.155,0.01591,-0.019298
8.16,-0.006093,-0.013861
8.165,0.000605,-0.012571
8.17,-0.020667,-0.010465
8.175,0.012207,-0.001857
8.18,0.010008,0.013603
8.185,0.003575,0.005701
8.19,-0.014542,-0.000846
8.195,-0.017233,0.005538
8.2,0.013593,0.009658
8.205,-0.000423,0.008955
8.21,-0.00218,-0.005615
8.215,0.007531,0.00726
8.22,0.033055,0.007291
8.225,-0.016514,-0.009781
8.23,-0.019526,0.000774
8.235,-0.016495,0.013623
8.24,-0.004373,0.006418
8.245,0.002275,0.003438
8.25,-0.015548,-0.000335
8.255,-0.006411,-0.001013
8.26,0.00187,0.006815
8.265,-0.006983,0.008236
8.27,0.004939,0.016388
8.275,-0.049689,-0.006427
8.28,0.018879,-0.025212
8.285,0.02227,0.000822
8.29,-0.030633,0.007256
8.295,-0.015789,-0.009128
8.3,0.02197,-0.003869
8.305,-0.01439,0.02008
8.31,0.013936,-0.003346
8.315,-0.011842,-0.00204
8.32,0.023659,-0.009825
8.325,-0.019108,0.012746
8.33,-0.004232,0.001005
8.335,0.007873,-0.003901
8.34,-0.036361,-0.002122
8.345,0.018616,0.021724
8.35,-0.001768,-0.000287
8.355,0.020482,0.005957
8.36,0.004431,-0.019791
8.365,-0.006245,0.002148
8.37,-0.022711,-0.00366
8.375,0.025628,-0.002571
8.38,-0.021515,-0.018871
8.385,-0.000169,-0.005777
8.39,-0.013028,0.002275
8.395,0.004272,0.001746
8.4,0.005257,-0.01229
8.405,-0.009608,-0.003262
8.41,-0.000807,0.009896
8.415,-0.010923,-0.007776
8.42,0.022311,0.001585
8.425,-0.020971,-0.00311
8.43,-0.018543,-0.01137
8.435,-0.020014,-0.00796
8.44,0.030896,0.010105
8.445,0.020725,0.010876
8.45,-0.002023,0.004034
8.455,0.001542,-0.010681
8.46,-0.017436,0.009004
8.465,-0.018276,0.002009
8.47,0.009782,0.007527
8.475,0.005539,-0.012007
8.48,0.008106,-0.001383
8.485,-0.014663,-0.019888
8.49,0.006768,-0.015524
8.495,-0.02561,0.017479
8.5,-0.018021,-0.0042
8.505,0.001077,0.000702
8.51,-0.01529,-0.007083
8.515,0.012085,-0.002788
8.52,-0.000347,-0.021626
8.525,-0.008605,0.008574
8.53,-0.010938,-0.009515
8.535,0.005624,0.005987
8.54,0.005006,-0.005664
8.545,0.011244,0.01629
8.55,0.017549,-0.015633
8.555,0.043942,-0.013256
8.56,-0.018389,0.003044
8.565,-0.001415,0.003614
8.57,0.019675,0.009305
8.575,-0.013402,0.000721
8.58,0.015168,0.010529
8.585,0.016867,0.008175
8.59,0.010619,-0.005135
8.595,-0.019773,0.004224
8.6,-0.00681,0.012445
8.605,-0.013088,-0.003812
8.61,-0.006421,0.00967
8.615,0.011272,0.000228
8.62,0.00438,0.016148
8.625,-0.02644,0.00748
8.63,0.0162,0.012143
8.635,0.012038,-0.007739
8.64,-0.008086,0.006622
8.645,-0.008839,-0.001983
8.65,-0.022579,-0.011924
8.655,0.0052,-0.00426
8.66,-0.011381,-0.001878
8.665,0.004521,-0.002612
8.67,0.002589,0.000885
8.675,-0.003773,-0.000114
8.68,-0.013309,-0.005016
8.685,-0.027556,-0.011664
8.69,-0.017806,-0.003989
8.695,0.016955,-9e-05
8.7,0.002257,-0.009424
8.705,0.004307,0.016958
8.71,-0.001309,-0.008247
8.715,-0.017488,0.002629
8.72,-0.01412,0.007134
8.725,-0.015185,-0.016561
8.73,0.007199,-0.012937
8.735,0.009092,0.010374
8.74,-0.008892,0.002083
8.745,0.020882,-0.004648
8.75,0.023977,-0.003286
8.755,-0.014066,0.000975
8.76,0.003377,0.011344
8.765,0.013296,0.003695
8.77,0.009843,0.001809
8.775,0.011882,-0.005187
8.78,-0.016219,0.002086
8.785,0.040337,0.008077
8.79,-0.0105,0.013939
8.795,-0.027967,-0.002519
8.8,0.005961,-0.006732
8.805,-0.008913,-0.0017
8.81,-0.008138,-0.007841
8.815,-0.016263,-0.015601
8.82,-0.014496,-0.001016
8.825,0.015096,-0.006634
8.83,-0.018175,0.016054
8.835,-0.017149,0.000946
8.84,-0.014046,-0.007189
8.845,0.005798,0.004612
8.85,0.019065,0.006688
8.855,0.00231,0.006246
8.86,-0.015454,0.012105
8.865,0.00799,0.004898
8.87,0.008978,-0.014797
8.875,-0.017009,0.001323
8.88,0.002174,0.00575
8.885,0.001599,-0.001845
8.89,0.018867,0.003496
8.895,0.0112,0.011952
8.9,0.018959,0.003177
8.905,0.010887,0.00266
8.91,0.016088,0.022806
8.915,-0.015673,-0.007527
8.92,0.023755,0.001861
8.925,-0.006449,-0.006941
8.93,0.014061,0.005604
8.935,0.030116,-0.000912
8.94,0.013524,0.016539
8.945,-0.021509,-0.010534
8.95,0.004071,-0.005726
8.955,-0.006322,-0.006609
8.96,-0.002219,-0.00904
8.965,-0.019196,0.003852
8.97,0.001872,0.009789
8.975,0.007829,0.00424
8.98,0.011293,-0.009149
8.985,-0.007477,0.002749
8.99,0.014023,0.006466
8.995,-0.00318,-0.001863
9.0,0.003748,-0.011564
9.005,0.012728,0.007723
9.01,0.013936,0.009934
9.015,0.014968,-0.018841
9.02,0.003379,-0.014299
9.025,-0.01429,-0.001328
9.03,0.017746,0.003312
9.035,0.003472,0.017856
9.04,0.003615,-0.009497
9.045,-0.020908,-0.008729
9.05,0.001678,-0.015406
9.055,0.006574,0.003089
9.06,-0.0108,0.001041
9.065,0.007747,-0.006319
9.07,0.010992,-0.007167
9.075,0.008813,0.014576
9.08,0.004831,-0.012735
9.085,0.001331,0.000811
9.09,-0.012918,-0.012595
9.095,-0.005724,0.008684
9.1,0.012268,0.011999
9.105,-0.000673,0.019646
9.11,-0.012692,0.004408
9.115,-0.003624,0.014914
9.12,0.000484,-0.010321
9.125,0.003628,-0.01122
9.13,-0.013084,0.009264
9.135,-0.000305,0.008556
9.14,-0.013105,0.012968
9.145,-0.00263,-0.019574
9.15,-0.013436,-0.013975
9.155,-0.021957,0.005105
9.16,0.005485,0.005908
9.165,-0.011059,0.005317
9.17,-0.022021,-0.004829
9.175,-0.002381,-0.005703
9.18,0.001507,-0.000227
9.185,0.007067,0.003035
9.19,0.014329,-0.004802
9.195,0.009773,0.002775
9.2,0.003646,0.001337
9.205,-0.032347,0.019175
9.21,-0.01373,-0.007964
9.215,-0.004834,-0.0131
9.22,0.026188,-0.006197
9.225,-0.010257,-0.008297
9.23,0.006556,0.013958
9.235,0.004091,-0.007742
9.24,0.019842,0.002836
9.245,-0.010836,-0.00072
9.25,0.00197,0.002371
9.255,2.4e-05,0.000239
9.26,0.027942,0.028337
9.265,0.002595,-0.009172
9.27,-0.015753,0.008131
9.275,-0.024361,-0.001818
9.28,0.005924,0.001817
9.285,-0.00607,0.018378
9.29,0.011944,-0.004708
9.295,0.011749,-0.001839
9.3,-0.007744,-0.004076
9.305,0.017738,-0.005591
9.31,-0.00107,0.0102
9.315,0.004562,0.002404
9.32,-0.00998,0.023309
9.325,0.012274,-0.023685
9.33,0.019563,-0.012861
9.335,-0.020581,-0.006979
9.34,0.018868,-0.002724
9.345,0.003159,-0.0167
9.35,0.016132,-0.002672
9.355,-0.019339,0.003248
9.36,0.007348,0.00085
9.365,0.019371,0.005836
9.37,0.022533,-0.000548
9.375,0.001643,0.008642
9.38,0.01738,-0.003331
9.385,0.028288,0.001154
9.39,7.3e-05,0.004418
9.395,-0.012836,-0.01646
9.4,0.030836,0.010643
9.405,-0.013859,0.001371
9.41,0.009353,-0.00488
9.415,0.021497,-0.004945
9.42,0.014886,-0.006304
9.425,0.007608,0.015499
9.43,0.007116,-0.004881
9.435,0.003325,0.007249
9.44,-0.006421,-0.003949
9.445,0.02643,0.01397
9.45,-0.009949,-0.013183
9.455,-0.019251,-0.011148
9.46,-0.004259,-0.000757
9.465,-0.020756,0.001546
9.47,-0.043548,0.001398
9.475,0.024117,-0.012151
9.48,-0.043195,0.001665
9.485,0.01051,-0.004084
9.49,0.003431,0.012911
9.495,0.025341,0.00598
9.5,-0.01854,0.001694
9.505,-0.015004,-0.000156
9.51,-0.003621,-0.00571
9.515,0.022967,-0.002277
9.52,-0.022214,0.003795
9.525,0.010292,0.00051
9.53,-0.011623,-0.004324
9.535,-0.008832,-0.005047
9.54,-0.010527,-0.00221
9.545,-0.020337,0.002468
9.55,-0.011735,0.008771
9.555,0.005719,0.015058
9.56,-0.020464,0.014112
9.565,-0.001749,0.006189
9.57,0.013346,0.009612
9.575,0.000924,0.004546
9.58,-0.001375,0.007276
9.585,-0.013377,0.004046
9.59,0.023091,0.020065
9.595,0.016021,0.014614
9.6,0.007854,0.010538
9.605,0.029176,-0.000543
9.61,-0.023816,-0.001703
9.615,0.00279,-0.008239
9.62,-0.017968,-0.00493
9.625,-0.01845,0.009127
9.63,0.02557,0.006754
9.635,-0.020919,0.002071
9.64,-0.012874,0.002797
9.645,-0.012347,0.009828
9.65,0.010535,-0.003206
9.655,0.007567,0.000632
9.66,0.025911,-0.019016
9.665,0.006193,0.01243
9.67,-0.005502,-0.004991
9.675,0.00266,-0.009197
9.68,-0.008049,-0.010242
9.685,-0.002663,-0.02092
9.69,-0.009042,0.005585
9.695,-0.005678,-0.004119
9.7,0.013484,0.015778
9.705,-0.011058,0.012049
9.71,0.008037,0.002577
9.715,-0.003041,0.007625
9.72,-0.028124,0.006764
9.725,0.015145,-0.002222
9.73,-0.003076,-0.014586
9.735,0.007942,0.002914
9.74,0.013681,-0.008707
9.745,0.000588,-0.004151
9.75,-0.017579,-0.017206
9.755,-0.004486,0.013712
9.76,0.021784,0.002636
9.765,-0.040282,0.004054
9.77,-0.037281,0.008975
9.775,-0.017324,-0.008126
9.78,-0.021195,-0.002098
9.785,-0.026272,-0.004458
9.79,-0.000785,0.008491
9.795,0.007951,-0.007496
9.8,0.032084,-0.011395
9.805,-0.011313,0.003525
9.81,-0.01083,0.007347
9.815,0.012714,0.013981
9.82,-0.001275,0.010443
9.825,0.022996,-0.00973
9.83,-0.001204,-0.018168
9.835,0.005123,0.00754
9.84,-0.002886,0.013836
9.845,0.017689,0.003807
9.85,-0.002831,0.015746
9.855,0.010261,0.009486
9.86,0.01619,-0.033493
9.865,-0.01389,0.016893
9.87,0.001006,-0.00376
9.875,0.015157,-0.015425
9.88,0.001435,-0.007465
9.885,-0.000153,-0.002517
9.89,-0.04198,-0.00365
9.895,-0.004752,0.008297
9.9,0.017182,-0.004446
9.905,0.010422,0.020022
9.91,0.016687,0.009508
9.915,-0.000492,0.005304
9.92,0.026134,0.004986
9.925,-0.003311,0.003669
9.93,-0.023855,-0.01505
9.935,0.021731,0.005858
9.94,0.010207,0.0061
9.945,0.003613,-0.016868
9.95,-0.001603,-0.006973
9.955,-0.012301,0.003102
9.96,0.007822,0.008477
9.965,0.001791,0.020898
9.97,0.014538,0.005788
9.975,0.00721,0.003481
9.98,0.011828,0.005201
9.985,0.01234,0.020223
9.99,-0.002115,0.013928
9.995,0.005342,0.000901
10.0,0.013572,0.007159
10.005,0.02776,0.004903
10.01,-0.002222,0.001274
10.015,0.023049,0.007614
10.02,0.065894,0.027418
10.025,0.043803,0.01371
10.03,0.007497,0.012673
10.035,0.043062,0.005376
10.04,0.082472,0.025776
10.045,0.080387,0.037432
10.05,0.058511,0.029013
10.055,0.090967,0.030807
10.06,0.071433,0.038405
10.065,0.099047,0.054307
10.07,0.132509,0.082789
10.075,0.100927,0.090934
10.08,0.135904,0.038071
10.085,0.144318,0.041424
10.09,0.147733,0.102149
10.095,0.154619,0.043081
10.1,0.202102,0.094414
10.105,0.224894,0.072061
10.11,0.173481,0.100538
10.115,0.234802,0.116096
10.12,0.248259,0.154869
10.125,0.323875,0.112065
10.13,0.309173,0.142514
10.135,0.331003,0.108029
10.14,0.300276,0.153336
10.145,0.32261,0.187854
10.15,0.338886,0.152578
10.155,0.411857,0.152363
10.16,0.408805,0.179584
10.165,0.397107,0.188495
10.17,0.342593,0.177156
10.175,0.382237,0.204888
10.18,0.402438,0.181509
10.185,0.338872,0.186673
10.19,0.379998,0.178687
10.195,0.36509,0.151656
10.2,0.429397,0.167279
10.205,0.407029,0.159603
10.21,0.404346,0.190261
10.215,0.306476,0.156438
10.22,0.474825,0.198253
10.225,0.411184,0.135731
10.23,0.483647,0.158458
10.235,0.462174,0.160638
10.24,0.411153,0.175375
10.245,0.323625,0.156181
10.25,0.357822,0.184247
10.255,0.348527,0.144272
10.26,0.335979,0.120442
10.265,0.354877,0.140975
10.27,0.253686,0.115116
10.275,0.290837,0.112918
10.28,0.244575,0.141423
10.285,0.263945,0.115175
10.29,0.208363,0.107326
10.295,0.186132,0.096285
10.3,0.175644,0.087005
10.305,0.205791,0.06238
10.31,0.188766,0.056067
10.315,0.157678,0.08161
10.32,0.107989,0.073162
10.325,0.110111,0.052472
10.33,0.144327,0.068336
10.335,0.100196,0.049968
10.34,0.095555,0.030597
10.345,0.096163,0.035168
10.35,0.099816,0.048688
10.355,0.034707,0.02274
10.36,0.075973,0.00656
10.365,0.026176,0.030448
10.37,0.070551,0.010368
10.375,0.046585,0.01762
10.38,0.031894,0.029443
10.385,0.022497,0.002207
10.39,0.004194,0.009423
10.395,0.03305,0.001043
10.4,0.045042,0.011773
10.405,-0.002577,0.015477
10.41,0.047598,0.015072
10.415,-0.002672,0.00579
10.42,0.005931,0.005304
10.425,0.000111,0.015568
10.43,-0.023279,-0.000743
10.435,-0.019346,0.008451
10.44,-0.010306,0.000514
10.445,-0.016867,0.000366
10.45,-0.006878,0.006308
10.455,-0.015338,0.007692
10.46,0.019511,0.015695
10.465,0.021742,0.012046
10.47,0.011563,0.008413
10.475,-0.018789,-0.007897
10.48,0.001051,0.015692
10.485,-0.000718,-0.004669
10.49,-0.011391,0.009551
10.495,-0.036149,-0.00156
10.5,0.004112,-0.021764
10.505,0.018072,0.016472
10.51,-0.011062,0.004253
10.515,-0.005066,-0.003482
10.52,-0.008112,-0.005251
10.525,-0.001435,-0.000245
10.53,-0.014375,-0.005981
10.535,-0.009031,-0.00438
10.54,-0.026153,-0.006585
10.545,-0.002301,-0.002231
10.55,0.006664,-0.007152
10.555,-0.008127,0.003131
10.56,-0.007228,-0.01254
10.565,-0.018945,0.003648
10.57,-0.004375,0.009137
10.575,-0.017018,0.005579
10.58,-0.004092,-0.007527
10.585,-0.006887,-0.01297
10.59,-0.030517,-0.021388
10.595,0.040198,-0.011817
10.6,-0.007428,0.011159
10.605,0.013232,0.00936
10.61,-0.009436,0.000297
10.615,0.000837,-7.3e-05
10.62,0.021486,0.013104
10.625,-0.011595,0.004635
10.63,0.010029,0.000476
10.635,-0.006332,0.011113
10.64,-0.005378,-0.008406
10.645,0.009167,0.001131
10.65,-0.015633,-0.019676
10.655,-0.02093,0.00163
10.66,-0.013383,0.015063
10.665,0.006448,-0.007257
10.67,-0.009992,-0.001528
10.675,0.010685,-0.006043
10.68,0.042192,0.005581
10.685,-0.013446,-0.004286
10.69,0.000227,-0.015631
10.695,-0.015073,0.00604
10.7,0.009971,-0.002126
10.705,-0.002363,0.004618
10.71,0.005666,-0.016928
10.715,0.013898,-0.00561
10.72,0.017011,0.001791
10.725,-0.009744,-2e-06
10.73,0.021607,-0.007496
10.735,-0.025644,-0.002557
10.74,0.018891,0.015882
10.745,0.015491,-0.021203
10.75,-0.003557,-0.004781
10.755,-0.002647,-0.010949
10.76,-0.004125,-0.011841
10.765,0.034801,0.000599
10.77,-0.007763,-0.012395
10.775,0.014368,0.005835
10.78,0.01743,0.003466
10.785,-0.007027,-0.007279
10.79,-0.011466,-0.004051
10.795,0.01028,-0.005516
10.8,0.004264,0.007529
10.805,-0.006811,0.009785
10.81,0.006304,0.003832
10.815,-0.000389,0.001734
10.82,-0.012906,-0.008385
10.825,0.003754,0.008944
10.83,-0.003457,0.005021
10.835,-0.003463,-0.007828
10.84,0.000187,0.003843
10.845,-0.010331,-0.00594
10.85,-0.007428,0.00183
10.855,-0.022125,0.002743
10.86,0.003924,0.002054
10.865,-0.008433,0.0028
10.87,-0.016549,-0.007612
10.875,0.011986,-0.013286
10.88,-0.009668,-0.005778
10.885,0.009744,-0.014401
10.89,-0.008835,-0.010854
10.895,0.024842,-0.002764
10.9,-0.00779,0.001137
10.905,0.01296,-0.02073
10.91,-0.016214,0.002184
10.915,-0.009447,-0.014424
10.92,-0.010634,0.001566
10.925,0.004885,0.019601
10.93,-0.024588,-0.014811
10.935,-0.018117,0.009729
10.94,-0.013439,-0.015189
10.945,0.012185,-0.007401
10.95,0.01673,0.002147
10.955,-0.009928,0.008938
10.96,0.012238,0.01502
10.965,-0.006204,-0.003185
10.97,0.022081,0.011115
10.975,0.003857,-0.0085
10.98,-0.015709,-0.01431
10.985,-0.014862,-0.002068
10.99,-0.017877,0.007207
10.995,-0.038679,-0.008012
11.0,-0.010203,0.006087
11.005,0.00784,-0.012308
11.01,0.003431,-0.010444
11.015,0.004372,-0.012198
11.02,0.001921,0.014686
11.025,0.030603,0.010867
11.03,-0.015474,-0.00519
11.035,-0.013998,-0.006102
11.04,-0.026217,-0.006303
11.045,0.016767,0.022344
11.05,0.00652,0.002032
11.055,0.010095,-0.015806
11.06,-0.012686,0.008052
11.065,-0.003496,-0.003681
11.07,0.012813,-0.019067
11.075,0.017509,-0.008121
11.08,0.00845,7e-06
11.085,0.010927,0.009923
11.09,-0.015179,0.008373
11.095,0.007597,0.014254
11.1,-0.007922,0.011876
11.105,0.01093,-0.004421
11.11,0.015017,-0.003723
11.115,0.013698,-0.001004
11.12,0.001622,0.000679
11.125,0.01521,-0.000867
11.13,0.008711,0.005997
11.135,-0.012889,0.00924
11.14,0.022094,0.005108
11.145,0.006086,-0.008518
11.15,0.01934,-0.015339
11.155,0.002162,0.015499
11.16,-0.010335,0.005395
11.165,-0.010895,0.006585
11.17,-0.021226,-0.004123
11.175,-0.009567,0.001015
11.18,-0.025518,0.015075
11.185,0.004651,-0.004888
11.19,0.022335,-0.000238
11.195,0.003847,0.002883
11.2,0.023862,0.001575
11.205,-0.016016,0.000894
11.21,0.006297,-0.000258
11.215,-0.009745,-0.008082
11.22,-0.025454,0.004811
11.225,-0.012517,-0.006425
11.23,0.007643,0.010792
11.235,-0.015534,-0.003513
11.24,-0.005909,0.005059
11.245,-0.0156,-0.008023
11.25,0.006301,-0.006032
11.255,-0.015429,-0.000112
11.26,-0.013745,-0.002735
11.265,0.019257,-0.001767
11.27,-0.002056,-0.004705
11.275,-0.022818,0.001773
11.28,0.015254,0.012626
11.285,0.042801,-0.002955
11.29,0.003026,-0.011
11.295,0.02778,0.009915
11.3,0.014411,0.005966
11.305,-0.00199,-0.025379
11.31,0.018751,0.006677
11.315,0.003865,-0.008264
11.32,0.013013,0.002987
11.325,0.003008,-0.011069
11.33,-0.01683,-0.000895
11.335,-0.001592,-0.0104
11.34,0.026019,-0.004386
11.345,-0.000981,0.002601
11.35,0.022082,-0.007751
11.355,-0.002786,-0.012745
11.36,0.015733,0.004261
11.365,0.002377,0.002844
11.37,0.02724,-0.001101
11.375,-0.008758,-0.005789
11.38,0.015465,0.005881
11.385,0.007203,-0.006484
11.39,0.008197,0.006009
11.395,0.001591,-0.001318
11.4,0.007102,0.003995
11.405,-0.007199,-0.003121
11.41,-0.025728,0.005975
11.415,-0.001646,0.015495
11.42,-0.026765,0.001696
11.425,0.008895,-0.006986
11.43,0.007245,0.002832
11.435,0.007943,-0.002333
11.44,-0.047652,0.000809
11.445,0.001411,-0.007312
11.45,-0.019879,0.005229
11.455,0.005947,0.015793
11.46,-0.012098,0.011855
11.465,0.000257,-0.004963
11.47,0.007488,0.008765
11.475,-0.007878,0.015704
11.48,0.000282,-0.012331
11.485,-0.01708,0.01072
11.49,-0.008294,0.00089
11.495,0.001589,-0.001124
11.5,0.01469,-0.004819
11.505,-0.016645,-0.023014
11.51,-0.001777,-0.002641
11.515,0.018574,-0.007041
11.52,0.015348,-0.00289
11.525,0.02581,-0.009737
11.53,-0.006017,0.006786
11.535,0.017827,0.008439
11.54,-0.020027,0.010883
11.545,-0.000139,-0.016281
11.55,-0.008382,-0.003484
11.555,-0.011988,0.013059
11.56,0.008053,0.011394
11.565,-0.013203,-0.016701
11.57,0.006782,0.00034
11.575,0.012949,0.006602
11.58,0.002338,0.008012
11.585,0.00115,0.002052
11.59,0.029677,0.012897
11.595,-0.015779,-0.01582
11.6,0.020359,-0.004364
11.605,-0.001975,-0.004881
11.61,0.004907,-0.004139
11.615,-0.017855,-0.01785
11.62,-0.035879,-0.010542
11.625,0.018371,-0.009377
11.63,-0.000353,0.011215
11.635,0.019708,-0.00557
11.64,0.01067,-0.003755
11.645,-0.029076,0.009574
11.65,0.001652,-0.008771
11.655,0.00309,0.003336
11.66,0.002498,-0.009682
11.665,-0.00262,0.003056
11.67,0.011307,-0.002159
11.675,-0.016248,0.004244
11.68,0.018555,-0.005955
11.685,0.007588,0.010483
11.69,0.015875,0.013446
11.695,0.00425,0.014077
11.7,0.020285,-0.008274
11.705,0.00465,0.002352
11.71,-0.010268,-0.003292
11.715,-0.03012,0.007104
11.72,0.012733,0.011509
11.725,0.02023,-0.006049
11.73,-0.0024,0.015436
11.735,0.016195,-0.007375
11.74,-0.035406,-0.002289
11.745,-0.016027,0.000626
11.75,0.014563,-0.014471
11.755,0.004122,-0.012158
11.76,0.037236,0.000516
11.765,0.007128,-0.01044
11.77,-0.031991,-0.009588
11.775,-0.014351,0.011726
11.78,-0.017213,0.00827
11.785,0.006322,-0.001115
11.79,-0.037297,-0.005497
11.795,0.014561,0.005373
11.8,0.002244,-0.014369
11.805,0.001891,0.002537
11.81,-0.007292,0.004331
11.815,-0.010654,-0.020078
11.82,-0.009648,-0.006903
11.825,0.018285,0.007195
11.83,-0.000758,-0.005468
11.835,0.008374,0.014941
11.84,-0.014506,-0.006391
11.845,0.017261,0.004808
11.85,-0.006577,0.011553
11.855,0.008274,-0.009428
11.86,0.00412,-7.2e-05
11.865,0.02479,0.006074
11.87,0.007253,0.001333
11.875,0.007814,-0.013891
11.88,-0.021816,0.003893
11.885,0.005996,-0.004035
11.89,-0.029971,-0.010878
11.895,0.008067,0.001269
11.9,-0.00962,-0.00929
11.905,0.003997,-0.001508
11.91,-0.00239,-0.005044
11.915,0.002254,0.002827
11.92,-0.009395,0.016627
11.925,-0.008832,0.001663
11.93,-0.023274,-0.00999
11.935,0.013807,0.007264
11.94,0.00322,-0.006725
11.945,0.005305,-0.009929
11.95,0.016051,-0.026289
11.955,-0.005775,-0.007972
11.96,0.019423,-0.00198
11.965,0.018561,0.014456
11.97,0.006821,-0.01638
11.975,-0.011308,-0.004992
11.98,0.006007,0.003796
11.985,-0.019944,0.007846
11.99,-0.015221,-0.003539
11.995,0.003861,-0.001298
12.0,0.023533,0.011394
12.005,-0.019786,-0.011257
12.01,0.017247,0.001133
12.015,0.009425,0.000251
12.02,0.018458,0.007717
12.025,0.011797,-0.006767
12.03,0.009111,-0.016102
12.035,-0.003611,-0.006354
12.04,-0.011651,-0.009368
12.045,-0.030114,0.012384
12.05,-0.003192,-0.001772
12.055,0.007518,0.010652
12.06,0.020052,-0.004316
12.065,0.00282,-0.009053
12.07,0.010992,0.00021
12.075,0.013637,0.008273
12.08,0.011725,0.005362
12.085,0.001305,-0.012427
12.09,0.004936,0.016834
12.095,-0.006509,-0.006774
12.1,0.009271,0.016743
12.105,-0.015616,-0.024159
12.11,-0.009222,0.000997
12.115,-0.002142,-0.002603
12.12,-0.00754,-0.006469
12.125,-0.012408,0.0036
12.13,0.008587,-0.015853
12.135,0.023729,0.004415
12.14,0.00831,-0.002829
12.145,0.003822,-0.011236
12.15,0.023751,0.014149
12.155,-0.003593,-0.013187
12.16,-0.004588,0.005913
12.165,-0.005907,-0.007956
12.17,0.002413,-0.008738
12.175,0.020029,0.009455
12.18,0.009957,-0.007079
12.185,0.003103,0.011094
12.19,-0.031397,0.002057
12.195,0.021093,0.018115
12.2,-0.014258,0.002762
12.205,0.015665,0.012058
12.21,-0.027595,-0.020096
12.215,0.002314,0.004983
12.22,-0.001869,-0.003279
12.225,0.01917,0.014775
12.23,-0.008883,0.001577
12.235,-0.017353,0.017355
12.24,-0.021064,-0.010701
12.245,-0.013347,-0.010485
12.25,0.019163,0.023216
12.255,0.00391,-0.003361
12.26,0.010826,-0.00907
12.265,0.020066,-0.000365
12.27,0.006308,-0.006913
12.275,-0.003066,-0.016196
12.28,0.000281,0.008903
12.285,-0.027773,-0.010098
12.29,-0.007142,-0.003097
12.295,-0.001354,-0.000451
12.3,0.004256,-0.000355
12.305,-0.025229,0.003137
12.31,0.018051,0.002581
12.315,-0.026602,0.002323
12.32,0.00713,-0.009893
12.325,0.001143,0.012764
12.33,0.024261,0.001265
12.335,0.007612,-0.001651
12.34,-0.006148,0.01385
12.345,0.014437,0.00617
12.35,-0.007898,0.014673
12.355,0.015607,-0.012917
12.36,0.016329,0.001683
12.365,0.004177,-0.020171
12.37,-0.021947,0.009895
12.375,-0.011505,0.008124
12.38,-0.019907,-0.014752
12.385,0.028661,0.009094
12.39,-0.001925,0.002237
12.395,-0.010629,0.00356
12.4,0.017691,-0.004155
12.405,0.007284,-0.016922
12.41,0.027023,0.010046
12.415,-0.00045,-0.003344
12.42,0.021165,-0.005048
12.425,0.005546,-0.003139
12.43,-0.013841,0.010388
12.435,-0.006183,0.004642
12.44,-0.00521,-0.001345
12.445,-0.002566,-0.006549
12.45,0.011,-0.000868
12.455,0.012941,0.007468
12.46,0.018334,-0.004915
12.465,0.009956,-0.001744
12.47,-0.000336,-0.007144
12.475,-0.007117,0.006302
12.48,-0.00513,-0.007295
12.485,0.012725,0.003568
12.49,-0.018278,0.001057
12.495,0.016923,0.010962
12.5,-0.008057,-0.011107
12.505,-0.005483,0.013441
12.51,0.011156,-0.022937
12.515,0.012881,-0.022178
12.52,0.028989,0.008454
12.525,-0.005919,0.001069
12.53,0.009915,-0.004934
12.535,0.006953,-0.001295
12.54,-0.003762,0.01525
12.545,-0.030581,0.00047
12.55,-0.020896,-0.001821
12.555,-0.010622,0.025463
12.56,-0.007713,-0.00137
12.565,-0.009276,0.008894
12.57,-0.007652,-0.00655
12.575,0.028056,0.007809
12.58,0.004035,0.024124
12.585,-0.009495,-0.008126
12.59,-0.011902,0.012032
12.595,-0.009282,0.011903
12.6,-0.009441,-0.018147
12.605,-0.012024,0.002871
12.61,0.017885,0.013013
12.615,0.005496,0.006841
12.62,-0.039666,0.002627
12.625,0.000578,-0.00309
12.63,-0.009989,0.008797
12.635,0.017089,0.019646
12.64,-0.002921,-0.007961
12.645,0.028279,-0.003204
12.65,-0.007809,-0.013872
12.655,0.006302,0.006057
12.66,0.012654,0.002231
12.665,0.008162,0.005543
12.67,0.007716,0.011784
12.675,0.012787,0.001888
12.68,-0.008058,0.00803
12.685,-0.008657,-0.001477
12.69,-0.010743,0.021329
12.695,-0.014568,0.006639
12.7,0.010144,0.008762
12.705,-0.000594,0.000839
12.71,-0.002952,-0.02718
12.715,-0.011464,0.01364
12.72,-0.012244,0.00135
12.725,0.039564,-0.009682
12.73,-0.007569,-0.002521
12.735,-0.029977,-0.008683
12.74,-0.02143,0.005439
12.745,-0.003706,-0.021325
12.75,0.012152,0.009721
12.755,-0.005425,0.009467
12.76,0.008811,-0.009144
12.765,0.004219,0.001847
12.77,-0.012527,-0.010266
12.775,0.006119,0.023067
12.78,-0.000559,0.002103
12.785,-0.015817,-0.002596
12.79,-0.003035,-0.003767
12.795,-0.009837,-0.000487
12.8,-0.008444,0.012415
12.805,0.030748,-0.007613
12.81,-0.005454,0.004336
12.815,0.008746,-0.007635
12.82,-0.008563,0.005866
12.825,-0.024575,0.022151
12.83,0.004522,-0.003041
12.835,-0.002255,-0.010734
12.84,0.027038,-0.000839
12.845,-0.006526,0.01757
12.85,0.015479,-0.001944
12.855,0.006544,-0.003322
12.86,-0.005433,-0.00221
12.865,0.004461,0.010949
12.87,0.029663,-0.021726
12.875,0.034835,0.010244
12.88,0.000248,-0.0043
12.885,-0.028021,0.011944
12.89,-0.016419,0.006519
12.895,-0.006221,-0.016257
12.9,0.006276,0.004863
12.905,-0.014037,0.008594
12.91,0.027081,0.004907
12.915,0.006471,-0.007338
12.92,-0.015591,-0.004061
12.925,0.001035,0.000117
12.93,-0.002983,0.024917
12.935,0.008567,-0.009763
12.94,-0.018009,-0.017386
12.945,-0.015143,0.005787
12.95,-0.004279,-0.006929
12.955,0.008844,0.005492
12.96,0.005571,-0.000132
12.965,-0.000551,-0.013186
12.97,-0.027678,-0.008064
12.975,-0.01183,-0.008189
12.98,-0.002598,-0.00474
12.985,-0.019569,-0.001029
12.99,0.00504,-0.004925
12.995,0.012286,0.003155
13.0,0.005842,-0.003735
13.005,0.006202,0.006825
13.01,-0.028939,0.010683
13.015,-0.007667,0.006506
13.02,-0.034595,-0.004341
13.025,-0.025485,-0.001484
13.03,0.002722,0.00407
13.035,0.00031,-0.012525
13.04,0.019541,-0.013453
13.045,-0.005045,-0.007767
13.05,-0.009038,-0.014031
13.055,0.016284,0.007461
13.06,0.001074,-0.001443
13.065,-0.0144,-0.001101
13.07,-0.01362,0.000864
13.075,0.005906,-0.002471
13.08,0.005985,0.005836
13.085,0.01207,0.019748
13.09,-0.021415,-0.012338
13.095,-0.018247,-0.001978
13.1,-0.023917,-0.005304
13.105,0.012571,0.007293
13.11,0.024593,0.008536
13.115,0.015195,-0.00529
13.12,-0.005371,0.008789
13.125,0.012879,-0.019164
13.13,-0.020829,-0.009779
13.135,-0.0129,0.013174
13.14,0.027089,0.003299
13.145,0.005111,0.019419
13.15,0.00673,0.00559
13.155,0.005591,0.003743
13.16,0.020236,0.007263
13.165,0.00128,-0.003931
13.17,0.003901,-0.016627
13.175,0.006911,0.001261
13.18,0.004812,-0.011567
13.185,0.007031,0.001831
13.19,-0.000105,0.003702
13.195,-0.012445,-0.014564
13.2,0.006811,-0.022018
13.205,0.008925,0.020675
13.21,0.005562,0.008537
13.215,0.024416,0.010442
13.22,0.034155,-0.008711
13.225,-0.005118,0.004833
13.23,-0.024224,-6.4e-05
13.235,0.001001,0.012979
13.24,0.016008,0.007663
13.245,0.010451,0.000614
13.25,0.004383,0.007595
13.255,0.015176,-0.007191
13.26,0.006744,-0.000753
13.265,0.003983,0.011544
13.27,-0.003759,-0.00922
13.275,-0.013665,-0.005732
13.28,0.009143,-0.001657
13.285,-0.008971,0.007728
13.29,0.002399,0.007006
13.295,0.032895,0.018813
13.3,0.005173,0.003389
13.305,0.016705,0.012779
13.31,-0.005372,-0.01225
13.315,0.012944,0.002251
13.32,0.009153,0.005429
13.325,-0.010476,-0.005101
13.33,0.01607,-0.001616
13.335,-0.011723,-0.002754
13.34,0.005965,-0.005102
13.345,0.026061,0.008123
13.35,-0.022353,0.002295
13.355,0.023534,0.032963
13.36,-0.007062,0.000247
13.365,-0.020345,0.005563
13.37,0.007183,0.002832
13.375,-0.016263,0.007813
13.38,0.027423,0.013587
13.385,0.005434,-0.000507
13.39,0.013475,-0.001411
13.395,-0.037936,-0.017178
13.4,0.020523,0.013303
13.405,-0.001881,-0.007982
13.41,-0.004504,-0.012861
13.415,-0.003809,0.01747
13.42,-0.009384,-0.007944
13.425,-0.020159,0.002057
13.43,-0.014249,0.006504
13.435,-0.004629,0.016813
13.44,0.00887,0.00477
13.445,-0.021102,0.000241
13.45,0.004557,0.003429
13.455,0.005331,0.001226
13.46,-0.017516,-0.024068
13.465,-0.016743,0.010139
13.47,0.012005,0.011424
13.475,0.004922,0.00227
13.48,0.000259,-0.017082
13.485,0.002673,-0.006476
13.49,-0.009136,-0.009883
13.495,-0.001008,0.009152
13.5,0.011996,-0.009708
13.505,0.003634,-0.000744
13.51,-0.030168,0.009401
13.515,-0.009705,0.005804
13.52,-0.011867,0.00778
13.525,0.018726,0.002615
13.53,0.008147,-0.006535
13.535,-0.004755,-0.011189
13.54,0.015791,0.011863
13.545,-0.007198,0.000379
13.55,-0.010001,-0.01309
13.555,-0.007721,-0.011972
13.56,-0.029107,0.00296
13.565,-0.014935,-0.000418
13.57,-0.039868,0.000887
13.575,-0.010382,-0.006253
13.58,0.013058,-0.001223
13.585,0.004487,0.000535
13.59,0.007218,-0.007916
13.595,-0.000175,-0.002332
13.6,0.010634,-0.005765
13.605,0.0113,0.005284
13.61,-0.008716,0.007265
13.615,-0.005988,-0.0064
13.62,-0.012009,-0.010745
13.625,0.004669,-0.001965
13.63,-0.004605,0.008541
13.635,0.013225,0.001098
13.64,-0.02903,0.004851
13.645,-0.029382,-0.008926
13.65,-0.002413,0.015347
13.655,-0.037226,-0.015313
13.66,-0.010731,0.006912
13.665,-0.024482,-0.008001
13.67,0.018192,0.008818
13.675,-0.009119,0.010138
13.68,0.001278,-0.009069
13.685,-0.010702,-0.006277
13.69,-0.016181,0.004588
13.695,0.01515,-0.014402
13.7,0.009996,-0.010445
13.705,-0.001089,0.003035
13.71,0.015207,-0.00024
13.715,0.003731,0.016293
13.72,0.024229,0.010532
13.725,0.011257,0.005082
13.73,0.024589,0.007373
13.735,-0.010168,0.001062
13.74,0.006162,-0.013927
13.745,-0.008668,0.017107
13.75,-0.017056,0.005099
13.755,0.004696,0.009651
13.76,-0.011658,-0.007768
13.765,0.000799,-0.006289
13.77,0.023224,0.001818
13.775,0.012796,-0.009961
13.78,0.008853,0.024896
13.785,-0.000824,-0.01121
13.79,0.01708,-0.004745
13.795,-0.019327,-0.011276
13.8,-0.017728,0.005227
13.805,-0.012749,-0.008689
13.81,-0.00558,0.004259
13.815,0.013352,0.012329
13.82,-0.004983,0.010163
13.825,-0.011811,0.017107
13.83,0.009302,0.002657
13.835,-0.023823,0.009741
13.84,-0.007018,-0.006114
13.845,-0.012313,-0.006062
13.85,0.007404,0.004273
13.855,0.000779,0.018732
13.86,-0.018731,0.002861
13.865,-0.019925,0.005636
13.87,0.0086,0.001358
13.875,0.007592,0.005846
13.88,0.00726,-0.01384
13.885,0.013162,0.017488
13.89,0.016856,-0.002602
13.895,0.02949,0.002472
13.9,0.017586,0.006827
13.905,0.021642,-0.015922
13.91,-0.011891,0.005243
13.915,-0.003585,-0.003635
13.92,0.022558,-0.005611
13.925,0.004639,0.003765
13.93,-0.003395,-0.023136
13.935,-0.027922,-0.002585
13.94,0.033016,-0.007202
13.945,-0.000354,0.020779
13.95,0.000573,0.005093
13.955,0.004675,-0.008377
13.96,-0.012868,-0.005025
13.965,-0.000112,-0.007336
13.97,-0.007409,0.002601
13.975,0.017993,0.023599
13.98,-0.01067,0.002844
13.985,-0.014735,-0.006189
13.99,-0.025804,0.017266
13.995,-0.00639,0.009597
14.0,-0.015818,-0.023449
14.005,0.025624,-0.016156
14.01,-0.015506,0.012027
14.015,0.001342,-0.00186
14.02,0.020024,-0.002825
14.025,0.012014,-0.012366
14.03,0.02141,-0.005563
14.035,0.002681,-0.007184
14.04,-0.012202,-0.002798
14.045,0.01376,-0.002449
14.05,0.002918,-0.004717
14.055,0.019858,-0.01465
14.06,-0.025149,0.014143
14.065,-0.032419,0.017209
14.07,-0.000227,0.004347
14.075,0.004849,-0.006576
14.08,0.007768,0.020374
14.085,0.0183,-0.007123
14.09,0.018598,-0.011721
14.095,-0.003275,0.001458
14.1,0.018656,-0.013852
14.105,0.01576,-0.004122
14.11,-0.024577,0.009975
14.115,-0.006246,-0.020035
14.12,0.011951,-0.016865
14.125,-0.005669,-0.011265
14.13,-0.012161,0.01089
14.135,0.009524,-0.01508
14.14,-0.003381,0.000682
14.145,0.020347,0.004606
14.15,-0.01815,-0.012911
14.155,0.009959,0.007636
14.16,-0.009011,-0.006261
14.165,0.007644,0.002895
14.17,-0.039451,-0.002714
14.175,0.012352,-0.014841
14.18,0.01306,-0.012478
14.185,0.003484,-0.008459
14.19,-0.024227,0.002209
14.195,-0.001534,0.015217
14.2,0.012474,-0.015883
14.205,0.00492,0.009813
14.21,0.012729,0.018604
14.215,0.029298,-0.007066
14.22,0.005824,0.024013
14.225,0.019172,-0.006705
14.23,-0.022872,-0.015563
14.235,0.009841,-0.001076
14.24,-0.002749,-0.005797
14.245,-0.012905,0.006166
14.25,-0.000413,0.00431
14.255,-0.024559,0.017898
14.26,0.017682,0.010706
14.265,-0.030953,0.008905
14.27,-0.021504,0.004291
14.275,0.017442,0.010716
14.28,0.010894,0.018527
14.285,0.002478,-0.008074
14.29,-0.007917,0.000193
14.295,0.012581,-0.010628
14.3,0.012229,-0.000246
14.305,-0.006897,-0.00934
14.31,-0.007072,0.003054
14.315,-0.00292,0.007544
14.32,-0.024174,-0.014698
14.325,-0.015554,0.011093
14.33,-0.002086,0.000374
14.335,0.008877,0.006562
14.34,-0.008009,-0.014273
14.345,-0.005378,-0.015286
14.35,-0.001006,-0.007665
14.355,0.004312,0.001961
14.36,-0.005459,0.006347
14.365,0.042553,-0.01845
14.37,0.036401,-0.009728
14.375,-0.020317,-0.009613
14.38,0.011008,0.002158
14.385,-0.0093,-0.005797
14.39,-0.011394,0.005915
14.395,0.018824,-0.002553
14.4,-0.01019,-0.003762
14.405,-0.034614,-0.000543
14.41,0.005744,-0.003692
14.415,-0.007571,0.011212
14.42,0.004701,0.003877
14.425,0.007546,0.001433
14.43,0.019704,-0.013696
14.435,-0.000468,-0.022832
14.44,-0.006307,0.020033
14.445,-0.019269,-0.011032
14.45,-0.001122,0.008633
14.455,0.010203,-0.005437
14.46,0.025464,-0.00058
14.465,0.017077,0.015934
14.47,-0.014746,-0.014949
14.475,0.008038,0.001862
14.48,0.000512,0.002681
14.485,-0.001507,0.015614
14.49,-0.04516,0.012708
14.495,0.003884,-0.001274
14.5,-0.014623,0.012323
14.505,-0.017407,0.001082
14.51,0.017063,-0.01655
14.515,0.004741,0.003108
14.52,0.006402,-0.004651
14.525,0.008783,0.010386
14.53,-0.004506,0.020834
14.535,-0.017046,-0.006786
14.54,0.018039,-0.002167
14.545,-0.014053,-0.004465
14.55,0.022719,0.007939
14.555,-0.013895,-0.018733
14.56,0.022384,0.002456
14.565,-0.006339,-0.009076
14.57,-0.031086,-0.013214
14.575,0.004505,-0.004937
14.58,0.024682,0.00919
14.585,-0.008883,-0.009272
14.59,0.019353,-0.003731
14.595,0.039654,0.000965
14.6,-0.020475,-0.020407
14.605,-0.011033,0.014454
14.61,-0.003707,-0.025002
14.615,-0.009376,-0.002901
14.62,0.020548,0.004326
14.625,-0.00225,0.003029
14.63,0.033364,0.01059
14.635,-0.011122,0.006842
14.64,0.016979,0.023295
14.645,0.004303,-0.003233
14.65,0.005365,-0.004773
14.655,0.002264,-0.00805
14.66,0.000351,-0.014569
14.665,0.01266,0.007986
14.67,-0.024762,0.007471
14.675,-0.008406,0.014128
14.68,0.015065,0.01087
14.685,0.008867,-0.010431
14.69,-0.031157,0.001356
14.695,-0.019091,0.001898
14.7,-0.022324,0.007812
14.705,0.007738,-0.012795
14.71,-0.01447,0.004239
14.715,0.013277,0.002299
14.72,-0.01041,0.001619
14.725,-0.003396,-0.005345
14.73,-0.02113,0.000414
14.735,-0.012283,-0.00128
14.74,-0.030207,0.008363
14.745,-0.008425,0.000795
14.75,0.022502,0.015536
14.755,0.009929,-0.010211
14.76,-0.001322,0.003001
14.765,0.00404,0.001405
14.77,0.012306,0.006584
14.775,0.018285,0.008227
14.78,-0.010422,-0.003189
14.785,-0.000189,0.004129
14.79,-0.007376,-0.000106
14.795,-0.004977,-0.005345
14.8,0.006193,0.009099
14.805,0.026586,0.010227
14.81,-0.005885,0.012711
14.815,-0.021457,0.004156
14.82,-0.008386,-0.005508
14.825,0.029716,-0.004204
14.83,0.00369,0.005906
14.835,-0.000381,-0.01361
14.84,0.004921,-0.003423
14.845,-0.001587,-0.000232
14.85,0.006843,0.004108
14.855,-0.022777,0.002198
14.86,0.026462,-0.019077
14.865,-0.013894,-0.006899
14.87,-0.02979,-0.018301
14.875,-0.014391,0.011489
14.88,-0.00551,-0.009328
14.885,-0.002519,0.004889
14.89,0.00728,0.000424
14.895,0.039624,0.002645
14.9,0.006502,-0.005307
14.905,-0.012923,-0.011645
14.91,-0.01935,0.005507
14.915,0.002429,-0.006305
14.92,-0.005264,0.010592
14.925,-0.003109,0.000342
14.93,0.00434,0.00497
14.935,-0.011343,-0.024636
14.94,-0.029258,0.003532
14.945,-0.00865,-0.003422
14.95,-0.025758,-0.008006
14.955,0.00179,0.000395
14.96,-0.016182,-0.011547
14.965,0.028906,-0.002498
14.97,-0.001637,-0.013416
14.975,-0.011717,-0.002774
14.98,-0.017255,0.000906
14.985,-0.017343,-0.007444
14.99,-0.011973,-0.016601
14.995,-0.023675,0.001202
15.0,-0.015458,-0.001853
15.005,-0.002185,0.003317
15.01,0.012187,-0.006477
15.015,-0.017283,0.001948
15.02,0.012837,-0.003453
15.025,-0.000996,-0.00194
15.03,-0.002318,0.006348
15.035,-0.006062,0.00604
15.04,0.006215,0.021503
15.045,-0.01082,0.011501
15.05,0.012043,-0.012228
15.055,0.008491,0.006117
15.06,-0.009137,-0.024611
15.065,0.011185,-0.012962
15.07,-0.002586,-0.017746
15.075,0.008901,-0.018359
15.08,-0.008812,-0.005646
15.085,-0.000104,-0.014831
15.09,0.006891,0.004837
15.095,-0.005447,-0.002844
15.1,-0.041295,0.016052
15.105,-0.003401,0.00647
15.11,0.002745,0.000557
15.115,0.010332,-0.006395
15.12,0.015287,0.015752
15.125,0.003013,-0.001569
15.13,0.014663,0.004133
15.135,-0.005625,-0.003415
15.14,0.001877,0.00762
15.145,-0.007554,0.0079
15.15,0.029438,0.005927
15.155,-0.000942,0.005691
15.16,-0.006632,-0.011195
15.165,-0.01138,-0.013695
15.17,0.014418,-0.004774
15.175,-0.027757,0.005108
15.18,0.005442,0.003037
15.185,-0.020118,-0.011177
15.19,0.026429,-0.006047
15.195,0.006835,0.00123
15.2,-0.020786,-0.014743
15.205,0.007432,-0.003101
15.21,-0.004235,0.010418
15.215,-0.024345,-0.000602
15.22,0.017571,0.008432
15.225,-0.00414,0.004693
15.23,0.009366,-0.008756
15.235,-0.022165,0.008645
15.24,0.000803,0.018192
15.245,-0.009656,0.00996
15.25,0.012452,0.004926
15.255,0.000432,-0.009454
15.26,-0.004379,-0.004936
15.265,0.000346,-0.010464
15.27,0.003688,0.017822
15.275,-0.013169,0.005311
15.28,-0.028362,0.005013
15.285,0.003932,-0.009107
15.29,0.008268,0.001043
15.295,0.027123,0.001132
15.3,0.005922,-0.00146
15.305,-0.016832,0.026018
15.31,0.002739,0.003058
15.315,0.001272,-0.014668
15.32,-0.020401,-0.016752
15.325,0.019815,0.005021
15.33,-0.005029,-0.014309
15.335,-0.012464,-0.001038
15.34,-0.018507,0.008729
15.345,-0.01206,-0.002816
15.35,-0.001507,-0.021883
15.355,0.012138,0.000402
15.36,-0.033238,-0.003909
15.365,-0.00501,-0.010345
15.37,0.005232,0.012045
15.375,0.0052,-0.014111
15.38,-0.010166,-0.019782
15.385,0.003009,-0.009982
15.39,0.004132,0.008012
15.395,0.013173,0.002077
15.4,-0.003837,-0.016215
15.405,0.032719,0.02209
15.41,-0.001401,0.004314
15.415,-0.017253,-0.00388
15.42,0.000392,-0.0059
15.425,0.02636,0.003112
15.43,-0.009318,-0.004081
15.435,0.003652,-0.015918
15.44,0.007233,-0.000396
15.445,0.013477,0.003554
15.45,-0.009799,-0.006698
15.455,0.020792,0.004287
15.46,0.008936,0.005938
15.465,-0.001359,-0.01095
15.47,0.026984,-0.001934
15.475,0.019324,-0.000892
15.48,0.016608,-0.008662
15.485,-0.019743,-0.002794
15.49,-0.007236,0.00661
15.495,0.005153,-0.015464
15.5,-0.01112,-0.013987
15.505,-0.011229,-0.00093
15.51,-0.009314,0.011665
15.515,0.006276,-0.008494
15.52,0.019312,0.009108
15.525,0.002935,-0.003643
15.53,0.029051,0.007979
15.535,-0.016125,0.001616
15.54,-0.012492,0.008948
15.545,-0.015428,-0.006369
15.55,-0.009264,0.004804
15.555,-0.015741,7.7e-05
15.56,-0.03226,0.008503
15.565,-0.040285,0.001767
15.57,0.003747,-0.004994
15.575,0.016491,0.011292
15.58,0.0161,0.011342
15.585,0.004911,-0.003796
15.59,0.003951,0.011014
15.595,-0.000793,-0.024009
15.6,-0.025176,0.018024
15.605,-0.012347,-0.006108
15.61,0.014168,0.008967
15.615,0.008378,0.001445
15.62,-0.031833,0.022185
15.625,-0.005683,0.010896
15.63,0.002126,-0.005353
15.635,-0.004006,-0.001686
15.64,0.024764,-0.01293
15.645,0.005952,0.018062
15.65,-0.007644,0.000359
15.655,-0.017615,0.016456
15.66,-0.017004,0.006459
15.665,-0.029499,-0.008622
15.67,0.003334,-0.011136
15.675,-0.00383,-0.013402
15.68,0.001334,-0.011822
15.685,-0.015909,0.002657
15.69,-0.028566,0.00631
15.695,-0.012247,0.01597
15.7,-0.007881,-0.00882
15.705,0.001621,0.009973
15.71,-0.036534,-0.006416
15.715,0.018865,-0.010398
15.72,-0.018294,-0.015911
15.725,-0.005191,-0.01256
15.73,0.006725,-0.015023
15.735,-0.007151,-0.001924
15.74,-0.009133,-0.002382
15.745,-0.01445,-0.0089
15.75,0.018429,0.004239
15.755,0.006336,0.010552
15.76,0.006055,-0.003056
15.765,0.008694,-0.002457
15.77,0.026183,0.002091
15.775,0.000695,0.015632
15.78,0.012373,-0.007031
15.785,0.007175,-0.0128
15.79,-0.003712,0.001756
15.795,0.002105,-0.001655
15.8,-0.014331,0.003991
15.805,0.008333,-0.006746
15.81,-0.000334,0.00493
15.815,0.007386,0.003546
15.82,0.007118,0.006042
15.825,0.010858,0.00457
15.83,-0.007626,0.00335
15.835,-0.01001,-0.005845
15.84,0.005133,0.00059
15.845,-0.010148,0.005601
15.85,-0.011337,0.00461
15.855,-0.019957,0.013219
15.86,0.007315,0.004636
15.865,0.000267,-0.01328
15.87,-0.025039,0.000737
15.875,-0.005565,0.003269
15.88,0.01557,0.004158
15.885,-0.0144,0.006343
15.89,-0.009148,0.004006
15.895,0.008967,-0.005194
15.9,0.021903,-0.003411
15.905,0.002806,-0.008316
15.91,-0.006653,-0.005082
15.915,0.026071,-0.001609
15.92,0.013967,-0.005788
15.925,0.005929,-0.007257
15.93,0.015729,-0.004655
15.935,-0.010184,0.006364
15.94,-0.004567,-0.000198
15.945,-0.004707,0.009527
15.95,-0.011388,-0.002813
15.955,0.012664,-0.002314
15.96,-0.001788,0.016674
15.965,0.013637,-0.000973
15.97,0.022901,0.001528
15.975,-0.03194,0.003163
15.98,0.018501,-0.009533
15.985,0.005043,-0.014076
15.99,0.011041,-0.012982
15.995,0.010808,-0.017306
16.0,0.002613,-0.015355
16.005,0.014981,-0.004228
16.01,-0.006573,0.022125
16.015,-0.009642,-0.005557
16.02,-0.01423,0.000372
16.025,-0.002737,-0.006597
16.03,-0.024056,0.012273
16.035,-0.020862,-0.00469
16.04,-0.005043,-0.001456
16.045,-0.001156,0.012978
16.05,0.001994,-0.006386
16.055,-0.006453,-0.011537
16.06,-0.033851,0.006745
16.065,0.033629,0.007599
16.07,-0.003335,0.014964
16.075,0.001868,-0.020664
16.08,-0.01421,0.005314
16.085,0.01721,0.006483
16.09,0.015834,-0.001339
16.095,0.006892,0.007529
16.1,-0.026729,0.002419
16.105,-0.005287,0.006762
16.11,-0.002205,0.003119
16.115,0.024931,-0.005751
16.12,-0.013027,-0.008925
16.125,0.013819,0.00226
16.13,0.024631,0.016727
16.135,-0.002336,-0.002025
16.14,-0.001803,0.010436
16.145,0.004593,0.014528
16.15,-0.016612,0.01301
16.155,-0.015137,0.021274
16.16,0.000244,0.007958
16.165,0.029664,0.010054
16.17,-0.00205,-0.002701
16.175,-0.002862,0.005746
16.18,0.004427,0.013666
16.185,-0.000911,0.023646
16.19,0.007567,0.014241
16.195,-0.002834,-0.000767
16.2,0.03152,-0.008925
16.205,0.030774,0.028631
16.21,0.015365,-0.003153
16.215,0.021376,0.023034
16.22,0.018387,0.017962
16.225,0.048951,0.017969
16.23,0.044472,0.03677
16.235,0.059873,0.016216
16.24,0.070481,0.052639
16.245,0.066894,0.030436
16.25,0.047958,0.021917
16.255,0.088781,0.034543
16.26,0.076213,0.04988
16.265,0.127738,0.025296
16.27,0.105648,0.069752
16.275,0.119332,0.048232
16.28,0.193561,0.046952
16.285,0.164612,0.076901
16.29,0.145848,0.069001
16.295,0.134129,0.061727
16.3,0.142839,0.071549
16.305,0.204557,0.064468
16.31,0.244647,0.06604
16.315,0.235682,0.100901
16.32,0.197647,0.090747
16.325,0.227651,0.128326
16.33,0.240586,0.105582
16.335,0.250482,0.137052
16.34,0.320426,0.124306
16.345,0.235852,0.137469
16.35,0.32147,0.160566
16.355,0.292252,0.140733
16.36,0.302925,0.152889
16.365,0.347524,0.161879
16.37,0.361617,0.186275
16.375,0.345992,0.122946
16.38,0.399595,0.171658
16.385,0.376369,0.198585
16.39,0.39262,0.201214
16.395,0.450031,0.131972
16.4,0.375158,0.222037
16.405,0.355187,0.185075
16.41,0.317132,0.161752
16.415,0.407379,0.223737
16.42,0.380465,0.130527
16.425,0.382769,0.135616
16.43,0.37077,0.163925
16.435,0.308279,0.186201
16.44,0.437958,0.175199
16.445,0.30002,0.159064
16.45,0.276211,0.150166
16.455,0.354629,0.13585
16.46,0.283913,0.110499
16.465,0.280291,0.112336
16.47,0.260602,0.13586
16.475,0.249191,0.104153
16.48,0.291244,0.119379
16.485,0.267975,0.116848
16.49,0.203699,0.096092
16.495,0.230909,0.114022
16.5,0.191129,0.093292
16.505,0.193949,0.068668
16.51,0.138804,0.079998
16.515,0.138169,0.060115
16.52,0.10552,0.057937
16.525,0.103135,0.063131
16.53,0.081768,0.038063
16.535,0.068938,0.047598
16.54,0.061509,0.037612
16.545,0.058519,0.025618
16.55,0.073515,0.023409
16.555,0.057032,0.044835
16.56,0.054433,0.048966
16.565,0.036087,0.037713
16.57,0.050236,0.029656
16.575,0.047048,0.018495
16.58,0.023891,0.026222
16.585,0.020081,0.010211
16.59,0.006835,0.020487
16.595,0.029256,0.008756
16.6,0.019251,-0.003175
16.605,0.018382,0.032467
16.61,0.0182,0.000526
16.615,0.005285,0.016833
16.62,0.011435,-0.01051
16.625,0.008172,0.005647
16.63,-0.002682,-0.015714
16.635,-0.001755,-0.018303
16.64,0.005877,0.001772
16.645,0.016756,-0.002467
16.65,-0.036924,0.015676
16.655,-0.002375,-0.005267
16.66,0.006522,-0.004289
16.665,0.011954,0.006276
16.67,0.006381,0.012616
16.675,0.004304,0.009692
16.68,-0.005186,0.009472
16.685,0.009319,-0.012973
16.69,0.00292,0.008492
16.695,0.015444,0.007593
16.7,0.018232,0.022379
16.705,-0.007154,-0.014086
16.71,-0.010272,0.012447
16.715,0.010408,-0.009126
16.72,-0.012546,-0.004945
16.725,-0.038077,-0.015536
16.73,0.010354,-0.005165
16.735,-0.003791,-0.002373
16.74,0.005933,0.005535
16.745,-0.029528,-0.013945
16.75,-0.00376,0.014151
16.755,0.021483,-0.002021
16.76,0.007714,-0.007349
16.765,0.018487,-0.008181
16.77,-0.003902,-0.013432
16.775,-0.001537,0.000393
16.78,0.007531,0.013271
16.785,0.016857,0.007307
16.79,0.000523,0.004021
16.795,-0.001989,-0.007376
16.8,-0.003603,0.010639
16.805,0.001198,-0.004005
16.81,0.007997,0.009383
16.815,0.0018,-0.018468
16.82,-0.02163,0.013302
16.825,-0.007139,-0.003242
16.83,-0.016064,0.002489
16.835,0.007315,0.002368
16.84,0.000893,0.001493
16.845,-0.034153,0.001224
16.85,-0.012156,0.008295
16.855,-0.003547,0.001526
16.86,-0.009032,-0.002633
16.865,0.020518,-0.008313
16.87,-0.008731,-0.014303
16.875,-0.001005,-0.00742
16.88,-0.015326,-0.011012
16.885,-0.001176,0.010998
16.89,-0.029587,-0.014742
16.895,0.002834,-0.014255
16.9,-0.027647,-0.011082
16.905,-0.009638,-0.000752
16.91,-0.024982,0.008759
16.915,-0.00023,0.008482
16.92,0.021536,-0.002956
16.925,-0.009535,0.005763
16.93,-0.026063,0.010782
16.935,-0.000906,-0.004272
16.94,-0.017032,-0.013073
16.945,-0.004653,0.004602
16.95,-0.000276,-0.023062
16.955,-0.010318,0.005133
16.96,0.027526,-0.001499
16.965,0.005708,3.8e-05
16.97,-0.006057,-0.011514
16.975,-0.013763,-0.013414
16.98,0.006951,0.00851
16.985,-0.002837,-0.006368
16.99,0.015141,0.022165
16.995,-0.026216,0.005599
17.0,0.002058,0.003206
17.005,0.010383,0.015389
17.01,-0.0019,0.021529
17.015,-0.017697,0.007613
17.02,-0.021437,-0.014188
17.025,0.006284,0.007199
17.03,-0.008683,0.005594
17.035,-0.010895,0.011111
17.04,-0.022206,0.002069
17.045,0.004292,0.002101
17.05,2e-05,-0.001204
17.055,-0.038622,-0.014675
17.06,0.014961,0.006949
17.065,0.020368,0.00062
17.07,0.025306,-0.001392
17.075,0.015463,-0.004683
17.08,-0.008263,0.009049
17.085,-0.021694,0.01525
17.09,0.027638,-6.4e-05
17.095,0.020679,-0.005359
17.1,-0.00372,0.002375
17.105,-0.0083,0.007039
17.11,0.013398,0.006505
17.115,-0.007694,-0.015233
17.12,0.006253,-0.003539
17.125,-0.024253,-0.012046
17.13,-0.004281,0.015237
17.135,0.005715,-0.008797
17.14,-0.016192,-0.009929
17.145,-0.015299,0.001602
17.15,0.016687,0.027066
17.155,0.026481,-0.004824
17.16,0.014099,0.000986
17.165,0.026114,0.005148
17.17,-0.00743,0.009642
17.175,-0.011879,-0.006285
17.18,-0.004697,-0.002678
17.185,-0.03123,0.010132
17.19,0.040054,-0.012393
17.195,0.020294,-0.016975
17.2,-0.001234,-0.008301
17.205,0.002821,0.005231
17.21,-0.019384,-0.001637
17.215,0.011056,-0.009283
17.22,0.018593,0.012849
17.225,-0.007112,0.014182
17.23,-0.029154,-0.006146
17.235,0.008031,0.009463
17.24,0.016525,0.009796
17.245,0.000591,0.006885
17.25,0.00045,-0.014681
17.255,0.013562,0.005693
17.26,-0.001892,-0.005774
17.265,0.029205,-0.009317
17.27,0.001083,-0.007019
17.275,-0.000817,0.011361
17.28,0.006149,-0.003077
17.285,0.012202,0.009316
17.29,-0.001005,-0.004302
17.295,-0.010878,-0.018933
17.3,0.023264,-0.007087
17.305,-0.017387,-0.008497
17.31,-0.017075,0.011099
17.315,-0.001292,-0.009767
17.32,-0.012087,-0.010007
17.325,0.016868,-0.014285
17.33,0.00123,0.00489
17.335,0.005523,0.002262
17.34,-0.002087,-0.023487
17.345,-0.000252,-0.004965
17.35,-0.019813,0.014472
17.355,0.018861,-0.003733
17.36,0.005361,3.8e-05
17.365,-0.028347,-0.004299
17.37,0.013059,-0.001108
17.375,-0.014963,0.011311
17.38,0.00524,-0.011597
17.385,-0.008538,-0.004224
17.39,-0.014758,0.007601
17.395,-0.008131,0.00137
17.4,0.026761,-0.006692
17.405,-0.016546,1.2e-05
17.41,-0.006769,-0.003342
17.415,-0.013676,-0.015494
17.42,-0.005905,-0.012931
17.425,-0.016524,0.028399
17.43,0.036345,0.023767
17.435,-0.004616,-0.010984
17.44,0.00832,-0.01029
17.445,-0.004145,-0.009323
17.45,0.013408,-0.001064
17.455,0.004849,-0.00607
17.46,-0.002975,-0.018129
17.465,-0.001511,-0.003128
17.47,0.00625,-0.0047
17.475,-0.014913,0.000782
17.48,0.021905,-0.001437
17.485,0.026734,-0.025017
17.49,-0.012997,-0.002692
17.495,-0.019994,-0.027382
17.5,0.000724,-0.009949
17.505,-0.01205,-0.00142
17.51,-0.003267,-0.006218
17.515,0.009291,-0.007857
17.52,0.01705,0.012242
17.525,-0.023739,-0.00875
17.53,0.013842,-0.012733
17.535,-0.008652,0.001577
17.54,0.015026,0.011738
17.545,-0.002142,0.005408
17.55,0.004956,0.016281
17.555,-0.000187,-0.001349
17.56,-0.002956,-0.012945
17.565,-0.019511,-0.0269
17.57,0.022055,0.01961
17.575,-0.025831,0.008489
17.58,0.006025,-0.002015
17.585,0.009315,-0.001017
17.59,0.039768,0.009072
17.595,-0.011818,-0.010858
17.6,0.020685,-0.002655
17.605,-0.003249,0.001492
17.61,0.000998,0.011562
17.615,-0.014168,-0.023001
17.62,-0.008345,-0.007948
17.625,-0.009555,-0.016634
17.63,-0.014143,-0.014556
17.635,0.014369,-0.01088
17.64,-0.003444,0.014371
17.645,-0.005098,0.003744
17.65,0.015096,0.005752
17.655,-0.008747,-0.010419
17.66,0.019364,0.001881
17.665,-0.010769,-0.003524
17.67,-0.000778,-0.017778
17.675,0.007241,0.010445
17.68,-0.009836,-0.008409
17.685,-0.006186,-0.001986
17.69,0.030254,0.008503
17.695,0.002689,-0.006138
17.7,0.001153,-0.001843
17.705,-0.017458,-0.004278
17.71,0.006617,-0.010707
17.715,-0.019746,-0.001571
17.72,-0.005985,-0.017213
17.725,0.017839,0.011757
17.73,0.031282,-0.004568
17.735,0.008559,0.012258
17.74,0.008131,0.011508
17.745,0.002399,-0.004869
17.75,0.007034,0.00492
17.755,0.010211,0.010909
17.76,0.002383,-0.002145
17.765,0.017677,-0.001494
17.77,-0.012311,0.009481
17.775,-0.032009,0.011204
17.78,0.012684,5e-06
17.785,0.017132,-0.004014
17.79,0.004504,-0.014361
17.795,-0.018512,0.00445
17.8,-0.006169,-0.011445
17.805,0.013922,-0.000817
17.81,-0.01,-0.001632
17.815,0.022566,0.010788
17.82,0.000784,0.006434
17.825,-0.008715,0.017993
17.83,0.019641,-0.003589
17.835,0.002996,0.009218
17.84,0.014473,0.010082
17.845,0.010275,0.003456
17.85,-0.023902,0.014631
17.855,-0.005061,0.00245
17.86,-0.000415,0.010522
17.865,-0.006349,-0.011645
17.87,0.02201,0.006968
17.875,0.023164,-0.00045
17.88,0.005105,0.009028
17.885,-0.01529,-0.01548
17.89,-0.012368,-0.006391
17.895,0.026723,0.025687
17.9,-0.003142,0.000928
17.905,-0.004794,-0.002434
17.91,0.005132,0.003405
17.915,-0.005287,-0.001105
17.92,-0.009066,-0.007322
17.925,-0.006004,0.006915
17.93,0.007289,-0.00525
17.935,0.014568,0.000603
17.94,0.014352,-0.001902
17.945,0.027021,0.013973
17.95,0.010895,0.014418
17.955,-0.009685,0.0174
17.96,-0.018366,0.0008
17.965,-0.009201,-0.019065
17.97,-0.019447,-0.004352
17.975,0.007308,-0.003703
17.98,0.01407,-0.003277
17.985,-0.013887,0.013591
17.99,0.018104,-0.00246
17.995,-0.02419,-0.010903
18.0,-0.007754,0.000757
18.005,0.017976,0.000716
18.01,0.004363,0.004308
18.015,-0.017704,0.011252
18.02,0.022799,0.005243
18.025,0.023219,-0.002502
18.03,0.000115,0.013699
18.035,-0.002559,-0.006127
18.04,0.026748,-0.001545
18.045,-0.01205,-0.000113
18.05,-0.03214,0.010453
18.055,0.020219,-0.012439
18.06,-0.010071,0.01858
18.065,0.014495,-0.003312
18.07,-0.002504,0.004013
18.075,0.021308,0.007749
18.08,0.008476,-0.00204
18.085,0.023149,0.005822
18.09,-0.016477,-0.003889
18.095,0.027033,-0.018169
18.1,-0.015882,0.00548
18.105,-0.002064,-0.011347
18.11,-0.052552,-0.003314
18.115,0.017703,-0.010005
18.12,-0.017206,0.007746
18.125,0.021039,-0.008792
18.13,-0.005216,-0.01518
18.135,-2.3e-05,-0.007483
18.14,-0.002547,-0.02449
18.145,0.013748,-0.018455
18.15,-0.020242,-0.002409
18.155,-0.030286,-0.01615
18.16,-0.01416,-0.01839
18.165,-0.010595,-0.001051
18.17,0.025551,0.008696
18.175,-0.03689,-0.00212
18.18,-0.012952,0.004556
18.185,-0.005144,0.003504
18.19,0.009753,-0.003898
18.195,-0.024812,-0.00415
18.2,0.009335,0.005689
18.205,-0.002806,0.006665
18.21,-0.001463,-0.012935
18.215,0.002597,0.00835
18.22,0.019655,-0.005856
18.225,0.001845,-0.002388
18.23,-0.020245,0.00319
18.235,-0.014028,0.000691
18.24,-0.010013,-0.005925
18.245,-0.000926,0.000808
18.25,0.007426,-0.004085
18.255,-0.004234,0.003661
18.26,-0.006305,0.00021
18.265,-0.008631,-0.000519
18.27,0.012351,0.008115
18.275,0.012256,0.012126
18.28,0.002252,0.009918
18.285,-0.004834,0.010073
18.29,0.011327,0.016636
18.295,0.012503,0.006781
18.3,0.004745,-0.00503
18.305,-0.009708,0.008481
18.31,-0.01922,0.015641
18.315,0.003094,0.006147
18.32,0.014549,0.002507
18.325,-0.001231,-0.021491
18.33,0.005338,0.005632
18.335,-0.022004,0.001919
18.34,-0.001554,0.010404
18.345,-0.025581,-0.005556
18.35,-0.002956,-0.008642
18.355,0.002799,-0.02058
18.36,-0.034013,-0.000265
18.365,0.008217,-0.008275
18.37,0.00553,0.00304
18.375,0.008645,0.000771
18.38,-0.025618,-0.0
18.385,0.001913,0.015007
18.39,-0.02247,0.022918
18.395,-0.001263,-0.010641
18.4,-0.004247,0.011183
18.405,0.000775,-0.007528
18.41,0.010321,0.00979
18.415,8.6e-05,0.017062
18.42,0.031676,-0.024208
18.425,0.000462,0.018535
18.43,0.00748,0.014842
18.435,0.008576,-0.014452
18.44,-0.009483,-9.3e-05
18.445,0.020041,-0.000626
18.45,-0.007188,-0.005399
18.455,0.002828,0.002066
18.46,0.034447,-0.001387
18.465,-0.01858,0.006184
18.47,0.004081,0.001749
18.475,-0.010716,0.004706
18.48,-0.007284,-0.005391
18.485,-0.008831,0.009789
18.49,-0.021513,-0.00089
18.495,-0.003975,0.007464
18.5,-0.002662,0.009128
18.505,-0.011463,0.004323
18.51,0.004142,0.000851
18.515,0.023471,0.005317
18.52,0.004012,0.010982
18.525,0.005801,-0.002507
18.53,0.014535,0.022331
18.535,-0.008365,0.006441
18.54,0.002041,0.000949
18.545,-0.028287,-0.00636
18.55,-0.012047,0.014349
18.555,-0.016783,0.013288
18.56,-0.014222,-0.001738
18.565,-0.006041,-0.005562
18.57,-0.023381,0.013909
18.575,0.016862,0.012044
18.58,0.014503,0.00912
18.585,0.018619,-0.007641
18.59,0.008565,0.014537
18.595,0.005282,-0.00178
18.6,-0.013162,-0.002644
18.605,-0.006996,-0.029871
18.61,0.007117,0.015252
18.615,0.009418,0.001773
18.62,-0.010873,-0.00238
18.625,0.021056,-0.013676
18.63,0.03398,-0.01502
18.635,0.012925,-0.006691
18.64,-0.006724,-0.021527
18.645,0.014238,0.004301
18.65,0.016132,-0.004951
18.655,0.020091,0.001853
18.66,-0.00259,-0.004962
18.665,0.018601,0.00364
18.67,0.006354,-0.014791
18.675,-0.00088,-0.010049
18.68,-0.012093,-0.018532
18.685,0.00888,-0.00107
18.69,6.8e-05,-0.009846
18.695,0.002786,-0.00995
18.7,-0.001288,0.00632
18.705,0.005634,0.005918
18.71,-0.010131,-0.019417
18.715,0.004178,-0.010668
18.72,-0.004802,-0.011776
18.725,-0.003485,0.006662
18.73,-0.00493,-0.012242
18.735,0.00218,0.002688
18.74,0.000313,0.002816
18.745,0.018579,0.016635
18.75,0.010689,-0.003505
18.755,0.005431,-0.013877
18.76,0.000174,0.018622
18.765,-0.000775,-0.000114
18.77,-0.011754,0.011156
18.775,-0.004256,0.003055
18.78,-0.00523,-0.012133
18.785,-0.002682,-0.010088
18.79,-0.010161,-0.005711
18.795,0.02583,0.006478
18.8,0.004728,-0.006291
18.805,0.009133,-0.001352
18.81,0.018329,-0.002204
18.815,0.025801,-0.002309
18.82,0.001356,-0.004657
18.825,-0.000391,-0.009807
18.83,-0.017217,-0.016624
18.835,-0.012613,-0.009454
18.84,0.004319,-0.006447
18.845,-0.002333,0.01311
18.85,0.0089,-0.015633
18.855,0.006086,0.006022
18.86,-0.002136,-0.009484
18.865,0.005436,-0.002558
18.87,0.004003,0.005814
18.875,0.006296,-0.004924
18.88,-0.024213,0.000963
18.885,-0.001857,-0.00165
18.89,0.004882,0.005343
18.895,-0.016153,0.00844
18.9,0.005257,0.001635
18.905,0.00098,0.021892
18.91,0.006775,-0.00085
18.915,-0.023822,-0.002698
18.92,0.007269,-0.012705
18.925,-0.002209,0.00142
18.93,0.011785,-0.015053
18.935,-0.002761,-0.002357
18.94,6.5e-05,0.004178
18.945,0.013164,0.010974
18.95,0.038929,0.002206
18.955,0.006862,-0.001248
18.96,-0.001187,-0.009055
18.965,-0.002664,-0.006485
18.97,-0.019151,0.001578
18.975,-0.00841,0.002045
18.98,-0.004271,0.005046
18.985,0.021618,0.005278
18.99,-0.00535,-0.00368
18.995,0.003169,-0.004151
19.0,-0.005198,0.011458
19.005,0.00429,-0.004734
19.01,0.002816,-0.001156
19.015,-0.007598,0.002496
19.02,-0.006013,-0.005928
19.025,0.010713,-0.006792
19.03,0.020841,-0.01237
19.035,0.006956,0.003956
19.04,0.00535,0.002956
19.045,0.013565,-0.002575
19.05,-0.005626,-0.003336
19.055,0.029866,-0.010411
19.06,0.01619,-0.008309
19.065,0.008056,0.011062
19.07,-0.018337,-0.008836
19.075,0.013055,0.012014
19.08,-0.008809,0.017487
19.085,-0.004072,0.003818
19.09,0.019096,-0.007396
19.095,0.024971,-0.007468
19.1,-0.001439,-0.003869
19.105,0.034882,0.000318
19.11,0.013029,0.011743
19.115,-0.006378,0.008999
19.12,-0.004714,-0.017264
19.125,-0.005549,0.000504
19.13,-0.033543,-0.011902
19.135,-0.001162,0.004285
19.14,0.009499,-0.000208
19.145,-0.00987,0.0058
19.15,-0.020474,0.007081
19.155,-0.022842,0.009143
19.16,-0.01352,0.015582
19.165,-0.006396,-0.006186
19.17,-0.01534,0.005735
19.175,-0.018082,-0.002597
19.18,0.006411,-0.008879
19.185,-0.013714,-0.005099
19.19,-0.020361,-0.007228
19.195,-0.000252,-0.015583
19.2,0.000106,0.000754
19.205,0.002788,-7.1e-05
19.21,-0.035207,-0.009017
19.215,0.004622,-0.001671
19.22,-0.01704,0.015771
19.225,0.018572,-0.013732
19.23,-0.00232,0.005361
19.235,0.024226,-0.021283
19.24,0.009549,-0.003876
19.245,0.002389,-0.002993
19.25,0.024863,0.019482
19.255,-0.004166,-0.009332
19.26,0.038295,0.004265
19.265,-0.016144,0.011221
19.27,-0.003061,-0.003341
19.275,0.015836,-0.017243
19.28,0.014045,0.001797
19.285,0.005283,0.001907
19.29,-0.024942,-0.00772
19.295,0.00561,0.005128
19.3,-0.001008,-0.016592
19.305,-0.00402,-0.008001
19.31,-0.011559,0.004787
19.315,0.004532,-0.015117
19.32,-0.002,0.005667
19.325,0.002813,-0.001736
19.33,0.000126,-0.01183
19.335,0.028298,0.00129
19.34,-0.013066,-0.018482
19.345,-0.026598,-0.006278
19.35,0.015473,-0.005743
19.355,-0.003978,-0.010158
19.36,0.022296,0.022413
19.365,-0.041047,-0.00372
19.37,0.007313,0.004883
19.375,-0.00773,-0.004781
19.38,0.010049,0.015139
19.385,-0.026825,-0.006989
19.39,0.006848,-0.010273
19.395,-0.008312,0.013216
19.4,0.0042,-0.005309
19.405,0.007116,-0.013622
19.41,0.002445,0.004504
19.415,0.018005,0.006385
19.42,0.002041,-0.001959
19.425,-0.003765,0.012235
19.43,0.018546,0.00538
19.435,0.000528,-0.008593
19.44,-0.020276,-0.004551
19.445,0.011634,0.001599
19.45,0.019141,-0.001885
19.455,-0.024412,-0.00689
19.46,0.012504,0.002461
19.465,0.001835,-0.000454
19.47,-0.007589,0.006385
19.475,-0.007922,0.003932
19.48,0.000279,-0.016083
19.485,0.023048,-0.002547
19.49,0.012559,0.005875
19.495,-0.000372,-0.004608
19.5,0.003025,-0.005337
19.505,-0.012566,-0.00511
19.51,-0.025111,-0.010094
19.515,-0.002145,0.005552
19.52,-0.030375,0.00478
19.525,0.019896,0.008807
19.53,0.020357,-0.012055
19.535,-0.014534,-0.014108
19.54,0.02048,0.021831
19.545,-0.024103,-0.001652
19.55,-0.020099,-0.018787
19.555,-0.014297,0.014728
19.56,-0.007524,0.008012
19.565,0.009837,-0.008351
19.57,0.020009,-0.010939
19.575,-0.007812,0.004441
19.58,-0.004555,-0.002524
19.585,0.012137,0.011497
19.59,-0.027108,0.000281
19.595,0.018943,0.015788
19.6,-0.037807,-0.007691
19.605,0.001258,-0.004188
19.61,0.010806,0.004837
19.615,0.008149,-0.002389
19.62,-0.002681,0.009333
19.625,0.007983,0.003342
19.63,0.001592,-0.007651
19.635,-0.011374,0.001286
19.64,0.015535,-0.010143
19.645,0.004903,0.003973
19.65,-0.003872,-0.00119
19.655,0.009606,-0.00784
19.66,0.02085,-0.017462
19.665,0.009882,0.006926
19.67,0.020749,-0.0204
19.675,-0.015927,0.010795
19.68,-0.011706,-0.000292
19.685,0.016122,-0.010676
19.69,-0.015656,-0.009877
19.695,-0.000632,-0.007482
19.7,0.00082,-0.001139
19.705,0.007499,-0.00661
19.71,0.008258,0.008463
19.715,0.013334,0.004388
19.72,-0.006461,0.00104
19.725,-0.021022,0.003052
19.73,0.013578,-0.006566
19.735,0.020882,0.00833
19.74,0.029463,-0.01121
19.745,0.001143,-0.006627
19.75,-0.006221,0.00769
19.755,0.017309,-0.000258
19.76,-0.005037,-0.010865
19.765,-0.000743,0.00275
19.77,0.009435,0.009349
19.775,-0.008386,-0.006777
19.78,0.019943,0.002651
19.785,-0.025715,0.016041
19.79,-0.010254,0.008107
19.795,-0.004932,0.000555
19.8,0.025023,-0.018213
19.805,-0.004816,-0.007252
19.81,-0.004124,-0.003146
19.815,0.013862,0.004296
19.82,-0.00708,0.015061
19.825,0.012633,-0.008824
19.83,-0.005624,-0.006784
19.835,0.003203,-0.003852
19.84,0.011186,-0.005301
19.845,0.000179,-0.005995
19.85,-0.009132,0.00846
19.855,-0.022649,0.002343
19.86,0.01233,0.013078
19.865,-0.014092,0.01216
19.87,-0.001626,0.000906
19.875,0.004173,-0.013194
19.88,0.019665,0.006974
19.885,-0.009868,-0.005912
19.89,0.035343,-0.002023
19.895,-0.001103,-0.016321
19.9,-0.003477,0.00522
19.905,-0.00819,0.001451
19.91,0.004847,-0.003698
19.915,0.015048,-0.001915
19.92,-0.001277,-0.000111
19.925,-0.026999,0.005779
19.93,0.011534,0.007759
19.935,0.006668,-0.000864
19.94,0.008169,0.027263
19.945,-0.016531,0.006043
19.95,0.007348,0.008416
19.955,-0.021394,0.020136
19.96,0.019363,-0.002316
19.965,0.02739,0.001653
19.97,0.031793,0.002164
19.975,-0.03017,-0.000264
19.98,-0.006795,-0.013741
19.985,-0.014833,0.002806
19.99,-0.011235,0.010014
19.995,-0.025261,-0.002469
20.0,0.007059,0.004065
20.005,-0.008428,0.002714
20.01,-0.015528,-0.007025
20.015,-0.021311,0.013082
20.02,-0.006059,-0.009937
20.025,-0.00433,0.013616
20.03,0.026371,-0.008939
20.035,0.027151,-0.000527
20.04,0.017264,0.008791
20.045,-0.011501,-0.006868
20.05,-0.025033,0.000377
20.055,0.006169,-0.002023
20.06,-0.018583,0.004539
20.065,0.012152,0.001685
20.07,-0.009355,0.003396
20.075,-0.014101,0.002755
20.08,0.005666,0.010609
20.085,0.027878,0.018455
20.09,0.013277,-0.005308
20.095,0.010019,-0.014098
20.1,-0.000103,-0.001234
20.105,-0.007536,0.005046
20.11,-0.006469,0.02012
20.115,-0.002606,0.019016
20.12,0.004344,-0.009937
20.125,0.001708,0.021438
20.13,-0.002281,0.000905
20.135,0.008288,0.007955
20.14,0.011306,-0.016917
20.145,-0.010966,-0.005308
20.15,0.045594,-0.007976
20.155,0.002074,0.02691
20.16,0.007605,0.013458
20.165,0.012776,-0.015833
20.17,-0.006955,-0.002468
20.175,-0.027054,-0.020791
20.18,0.014981,0.019217
20.185,-0.015994,-0.001162
20.19,0.021854,0.010526
20.195,-0.021186,-0.000378
20.2,0.00617,-0.0188
20.205,-0.008114,-0.00557
20.21,-0.034557,-0.007953
20.215,0.001901,0.00424
20.22,-0.019509,0.005395
20.225,-0.002968,-0.001314
20.23,-0.008894,-0.021714
20.235,0.012959,0.004663
20.24,-0.000382,-0.005283
20.245,-0.020305,0.004052
20.25,-0.006977,0.00576
20.255,0.010088,-0.005023
20.26,-0.010975,-0.001656
20.265,0.004941,-0.01725
20.27,0.002812,-0.014554
20.275,-0.005478,0.023092
20.28,-0.014895,-0.010239
20.285,-0.006156,-0.002234
20.29,-0.01953,0.003419
20.295,0.009558,0.005077
20.3,0.00522,-0.002713
20.305,-0.014197,0.000342
20.31,0.007868,-0.008462
20.315,-0.003156,0.000119
20.32,0.033961,0.011282
20.325,0.020294,0.007035
20.33,-0.009216,0.006124
20.335,0.022872,-0.009906
20.34,0.000914,0.001291
20.345,0.008412,0.011666
20.35,-0.002972,-0.00157
20.355,0.047236,-0.004802
20.36,-0.020591,0.001392
20.365,-0.008436,-0.001691
20.37,-0.001788,-0.022823
20.375,0.001291,0.002293
20.38,0.017774,0.001727
20.385,0.017345,0.016419
20.39,0.007878,0.004618
20.395,-0.004947,0.006225
20.4,-0.004957,-0.023479
20.405,-0.001896,0.011393
20.41,0.013292,-0.002682
20.415,-0.011875,-0.002655
20.42,-0.00053,-0.011698
20.425,-0.015112,-0.000803
20.43,0.003237,0.005773
20.435,-0.012075,-0.019283
20.44,-0.002908,0.009799
20.445,-0.02213,-0.008557
20.45,-0.010063,0.016464
20.455,0.016625,-0.003314
20.46,0.011672,-0.007049
20.465,-0.000506,-0.018394
20.47,-0.014691,-0.00954
20.475,-0.017528,0.00556
20.48,-0.014913,0.010073
20.485,0.008345,0.002377
20.49,0.017549,0.00252
20.495,-0.010686,-0.004327
20.5,0.010005,-0.012755
20.505,0.013645,-0.002025
20.51,0.009281,0.001178
20.515,-0.011702,0.015878
20.52,-0.003649,0.003027
20.525,-0.007985,-0.008043
20.53,0.001413,-0.00502
20.535,-0.000928,0.001345
20.54,-0.007982,0.009845
20.545,0.009003,-0.020543
20.55,-0.013709,-0.003728
20.555,-0.014732,-0.007307
20.56,0.009664,0.004864
20.565,-0.024218,-0.013002
20.57,0.003768,-0.00304
20.575,0.012263,-0.006536
20.58,0.000511,-0.008739
20.585,-0.004239,0.005994
20.59,0.005733,-0.011112
20.595,0.015658,-0.00064
20.6,0.006536,0.004308
20.605,-0.006845,0.008701
20.61,-0.010898,-0.003784
20.615,-0.018298,-0.015457
20.62,0.032949,-0.001666
20.625,-0.00617,0.018753
20.63,-0.026137,0.012195
20.635,0.003688,-0.001391
20.64,-0.003495,-0.002995
20.645,0.022334,0.010135
20.65,-0.002011,-0.007901
20.655,0.000352,-0.010111
20.66,-0.012193,-0.00301
20.665,-0.011414,-0.006484
20.67,-0.005452,-0.010394
20.675,0.02278,-0.021273
20.68,0.010493,0.006687
20.685,-0.002698,-0.001646
20.69,0.002071,0.000428
20.695,0.010459,0.005418
20.7,-0.006131,-0.009885
20.705,0.004697,0.005712
20.71,0.011763,-0.005528
20.715,0.037134,-0.017311
20.72,0.027637,-0.008096
20.725,-0.0016,0.0175
20.73,0.027909,0.015551
20.735,0.011945,0.00406
20.74,-0.020842,-0.011905
20.745,-0.001144,0.006063
20.75,0.010805,0.008462
20.755,0.020934,0.014184
20.76,0.000598,-0.020912
20.765,0.015135,-0.0022
20.77,-0.00724,0.001677
20.775,-0.019405,-0.002265
20.78,-0.021718,-0.023222
20.785,-0.010611,0.014576
20.79,0.001776,0.007736
20.795,-0.001786,0.003983
20.8,-0.02843,-0.0073
20.805,-0.013171,-0.013737
20.81,0.001654,0.003877
20.815,0.005206,-0.000622
20.82,0.010433,0.000575
20.825,0.004039,-0.005864
20.83,0.008127,0.004177
20.835,-0.015479,-0.006597
20.84,0.015975,-0.01313
20.845,-0.006251,0.010182
20.85,0.010084,0.00976
20.855,0.009043,-0.00361
20.86,-0.026692,0.020534
20.865,0.012148,-0.00886
20.87,0.001815,-0.006338
20.875,-0.001563,0.005898
20.88,-0.010644,0.018906
20.885,-0.005046,-0.004533
20.89,0.017667,-0.011602
20.895,0.001884,0.021154
20.9,0.001392,0.002222
20.905,-0.008659,-0.009339
20.91,-0.003353,0.022765
20.915,0.013769,0.005356
20.92,0.010358,0.009583
20.925,-0.004952,-0.000165
20.93,-0.000963,0.004492
20.935,-0.014478,-0.013046
20.94,-0.011065,0.003901
20.945,-0.016493,0.007708
20.95,-0.017198,-0.002154
20.955,-0.020733,0.00613
20.96,-0.022981,-0.020099
20.965,0.000942,0.003244
20.97,0.011506,0.001749
20.975,0.006339,0.001856
20.98,0.003075,0.013763
20.985,-0.003188,-0.009745
20.99,0.019629,0.009672
20.995,0.008618,-0.005428
21.0,0.007233,0.016877
21.005,-0.007117,0.006739
21.01,-0.020073,-0.009257
21.015,0.014723,0.006602
21.02,-0.005228,-0.010835
21.025,-0.011129,0.020476
21.03,0.000932,0.008678
21.035,0.008756,0.002723
21.04,0.006708,-0.003255
21.045,0.016964,0.000907
21.05,-0.004726,0.0054
21.055,-0.000521,0.003987
21.06,-0.012642,-0.017679
21.065,-0.032922,-0.014716
21.07,-0.015047,-0.005777
21.075,0.000113,0.004813
21.08,0.008148,-0.011748
21.085,0.02844,-0.001143
21.09,-0.008963,-0.000957
21.095,0.00403,0.003536
21.1,-0.008237,0.015374
21.105,-0.023365,0.004779
21.11,0.011547,-0.000494
21.115,-0.014226,0.000807
21.12,0.013938,0.000794
21.125,-0.00783,-0.020414
21.13,0.004541,-0.019487
21.135,0.016493,-0.007762
21.14,0.017331,0.009901
21.145,-0.000419,-0.002028
21.15,0.029279,-0.002636
21.155,-0.00447,-0.004655
21.16,-0.011228,0.000102
21.165,-0.002279,-0.026875
21.17,-0.015723,0.012765
21.175,0.012901,0.023354
21.18,-0.025044,-0.019858
21.185,0.016199,-0.010512
21.19,0.013208,-0.006463
21.195,0.017726,-0.003169
21.2,-0.002172,0.015007
21.205,0.01139,-0.006445
21.21,-0.041609,0.01587
21.215,-0.001583,0.002698
21.22,-0.013646,-0.001154
21.225,-0.012168,-0.006917
21.23,-0.037822,0.007321
21.235,0.003253,-0.007959
21.24,0.01731,-0.002241
21.245,-0.006625,-0.0103
21.25,0.022951,0.021123
21.255,-0.01579,-0.010369
21.26,-0.004091,0.007783
21.265,0.000818,-0.001687
21.27,0.011833,0.002076
21.275,-0.004135,-0.001825
21.28,-0.005467,0.009963
21.285,-0.000287,-0.000303
21.29,-0.000125,0.009285
21.295,-0.006161,0.019363
21.3,-0.013024,-0.014751
21.305,0.003574,0.003508
21.31,-0.006443,0.032888
21.315,0.006537,0.01253
21.32,0.009216,0.003414
21.325,-0.013839,0.00157
21.33,0.008074,-0.01318
21.335,-0.034619,0.012208
21.34,0.009523,0.0045
21.345,-0.004155,0.00817
21.35,-0.020812,-0.005891
21.355,-0.008668,0.0118
21.36,-0.004071,-0.006094
21.365,0.012548,0.009572
21.37,-0.002001,0.004015
21.375,-0.019279,-0.005722
21.38,-0.013967,-0.002758
21.385,0.011433,-0.007534
21.39,0.010435,0.008261
21.395,-0.013571,0.021551
21.4,-0.003926,-0.010932
21.405,-0.014079,0.004586
21.41,-0.003004,0.001266
21.415,-0.035145,-0.009091
21.42,-0.022143,0.008005
21.425,-0.009538,-0.00562
21.43,0.00083,0.011969
21.435,0.013088,0.008978
21.44,-0.011454,-0.003337
21.445,0.000502,-0.009981
21.45,-0.001344,0.000626
21.455,0.010808,-0.019074
21.46,-0.004859,0.000827
21.465,0.026582,0.006342
21.47,-0.00795,-0.007283
21.475,0.010174,0.00476
21.48,-0.013366,0.001042
21.485,0.022858,0.006129
21.49,-0.011248,-0.014584
21.495,0.009604,0.002215
21.5,0.015203,0.012924
21.505,-0.010666,0.00021
21.51,-0.013206,-0.017463
21.515,-0.004069,0.008192
21.52,0.001703,-7.7e-05
21.525,-0.022785,0.00144
21.53,9.5e-05,5.6e-05
21.535,-0.006056,-0.003083
21.54,0.00832,0.003865
21.545,-0.027981,0.003106
21.55,-0.004763,0.00117
21.555,0.011015,0.007055
21.56,0.027627,-0.00201
21.565,0.010282,-0.010548
21.57,0.009876,-0.013615
21.575,0.01318,-0.010715
21.58,-0.019433,0.005864
21.585,0.011037,0.016947
21.59,-0.005042,-0.005114
21.595,-0.000988,-0.012562
21.6,-0.012276,0.001235
21.605,-0.018783,-0.021965
21.61,-0.017987,0.00977
21.615,-0.003182,0.001084
21.62,0.012708,0.000588
21.625,-0.00323,-0.002019
21.63,-0.02355,0.003209
21.635,-0.018494,0.015341
21.64,-0.004055,-0.009579
21.645,-0.014278,0.012784
21.65,0.002769,-0.007863
21.655,-0.026252,0.013765
21.66,-0.021657,0.00259
21.665,0.00291,-0.012054
21.67,0.01333,-0.00257
21.675,0.028163,0.005446
21.68,0.027488,0.014441
21.685,0.027088,-0.002128
21.69,0.007497,-0.003641
21.695,-0.004795,0.001757
21.7,0.003336,-0.003192
21.705,0.01835,-0.019093
21.71,-0.032332,0.020857
21.715,-0.000249,0.010728
21.72,0.014436,0.015612
21.725,-0.018371,-0.006946
21.73,0.011691,-0.019665
21.735,-0.005539,-0.001109
21.74,0.018242,-0.007601
21.745,-0.015344,-0.004838
21.75,-0.007593,-0.001951
21.755,-0.004056,0.002709
21.76,-0.002197,0.004805
21.765,-0.005131,0.006244
21.77,-0.000115,0.015625
21.775,0.005875,-0.000748
21.78,0.016186,-0.004835
21.785,-0.002231,-0.004512
21.79,-0.000109,0.002558
21.795,-0.012648,0.014799
21.8,-0.003155,-0.022489
21.805,0.001023,0.004039
21.81,-0.006763,-0.016047
21.815,0.019887,-0.003904
21.82,-0.033628,-0.007312
21.825,0.018351,0.003029
21.83,-0.008355,0.018935
21.835,0.025907,0.006438
21.84,0.016363,-0.010969
21.845,0.026408,0.006349
21.85,-0.005075,0.003809
21.855,0.017794,0.000686
21.86,0.014035,0.004305
21.865,0.004608,-0.019154
21.87,0.008309,0.001823
21.875,0.014079,0.00568
21.88,-0.004393,0.016028
21.885,-0.003199,-0.002444
21.89,0.009828,0.017797
21.895,-0.006494,0.024964
21.9,0.03995,0.002461
21.905,0.006528,0.005671
21.91,0.051524,0.014956
21.915,0.0281,0.021459
21.92,0.033061,0.031216
21.925,0.042258,0.009448
21.93,0.032303,0.010247
21.935,0.049666,0.024903
21.94,0.055897,0.023814
21.945,0.069782,0.018322
21.95,0.075142,0.039177
21.955,0.067646,0.030405
21.96,0.118538,0.016066
21.965,0.058588,0.039756
21.97,0.081947,0.037426
21.975,0.102342,0.057573
21.98,0.119191,0.032071
21.985,0.106093,0.052034
21.99,0.131934,0.072635
21.995,0.188996,0.069681
22.0,0.160102,0.097216
22.005,0.154491,0.056869
22.01,0.221606,0.086308
22.015,0.214888,0.114392
22.02,0.233198,0.099973
22.025,0.296098,0.11335
22.03,0.244645,0.130995
22.035,0.267429,0.168485
22.04,0.316605,0.154449
22.045,0.341333,0.13806
22.05,0.362763,0.133167
22.055,0.335664,0.162084
22.06,0.281422,0.15448
22.065,0.356196,0.15488
22.07,0.317748,0.171991
22.075,0.313179,0.109644
22.08,0.373621,0.144993
22.085,0.248259,0.181
22.09,0.440946,0.174211
22.095,0.31937,0.134259
22.1,0.294284,0.16115
22.105,0.367073,0.163931
22.11,0.378743,0.152902
22.115,0.400454,0.200314
22.12,0.290174,0.172347
22.125,0.399669,0.154579
22.13,0.320094,0.1945
22.135,0.334816,0.194397
22.14,0.314753,0.142391
22.145,0.338172,0.142618
22.15,0.330864,0.129366
22.155,0.245402,0.135083
22.16,0.235263,0.111684
22.165,0.261946,0.135643
22.17,0.271578,0.12888
22.175,0.229801,0.084108
22.18,0.259913,0.088175
22.185,0.239542,0.096135
22.19,0.171489,0.097331
22.195,0.217655,0.060483
22.2,0.162887,0.078068
22.205,0.180809,0.051059
22.21,0.130304,0.056088
22.215,0.117545,0.051854
22.22,0.089404,0.067954
22.225,0.117624,0.037063
22.23,0.114805,0.036797
22.235,0.067064,0.054427
22.24,0.063242,0.033926
22.245,0.053366,0.036482
22.25,0.033236,0.020673
22.255,0.058991,0.036206
22.26,0.047062,-0.003854
22.265,0.028435,0.014666
22.27,0.039964,0.024579
22.275,0.031328,0.036423
22.28,0.050396,0.007312
22.285,0.044185,-0.002286
22.29,0.040162,0.006501
22.295,0.021925,0.009301
22.3,-0.00877,-7.9e-05
22.305,0.011102,0.009065
22.31,-0.003421,0.010436
22.315,0.034969,0.00414
22.32,0.031721,0.011707
22.325,-0.005555,0.002372
22.33,0.009359,-0.011985
22.335,-0.026757,0.011351
22.34,0.01617,-0.010579
22.345,0.002347,0.000728
22.35,0.023803,-0.003881
22.355,0.011793,-0.013852
22.36,0.028247,-0.016591
22.365,0.007028,0.00073
22.37,0.008044,0.009996
22.375,-0.017617,-0.006714
22.38,0.006205,0.008048
22.385,-0.026059,0.001986
22.39,-0.006112,0.000814
22.395,0.000832,-0.008048
22.4,-0.003594,-0.00408
22.405,0.017772,0.010198
22.41,-0.026788,0.001934
22.415,0.001307,0.008324
22.42,0.001213,-0.003418
22.425,-0.006074,0.009125
22.43,0.010178,-0.004107
22.435,0.005429,-0.007777
22.44,0.005141,0.005897
22.445,-0.010125,-0.005828
22.45,-0.004661,-0.017722
22.455,0.021819,-0.008933
22.46,-0.014111,-0.001101
22.465,-0.028974,-0.004402
22.47,0.011405,-0.004773
22.475,0.003788,-0.000995
22.48,0.012087,0.006052
22.485,-0.003443,0.006857
22.49,-0.001081,0.005088
22.495,0.016733,0.012059
22.5,0.021466,0.007166
22.505,0.02813,0.001742
22.51,-0.002358,-0.017668
22.515,-0.005053,0.008178
22.52,-0.001519,0.006654
22.525,-0.012245,0.001483
22.53,-0.015988,-0.004297
22.535,9.5e-05,0.001862
22.54,-0.013149,0.009019
22.545,0.014913,-0.001562
22.55,-0.019852,-0.005546
22.555,0.006639,-0.000678
22.56,-0.011354,0.000485
22.565,-0.023704,0.002654
22.57,0.001248,-0.007575
22.575,0.007723,0.007145
22.58,0.022956,0.000536
22.585,-0.012468,-0.002448
22.59,-0.004608,-0.011621
22.595,0.006162,0.002307
22.6,0.000386,-0.005942
22.605,-0.000105,-0.006029
22.61,-0.037053,0.010214
22.615,0.015288,0.002553
22.62,0.012921,0.015839
22.625,-0.02486,0.001336
22.63,-0.014489,-0.002944
22.635,-0.004644,0.010236
22.64,-0.009293,0.02172
22.645,-0.008107,-0.010891
22.65,-0.01084,-0.006379
22.655,-0.004861,-0.004474
22.66,-0.010037,-0.000985
22.665,-0.017913,-0.010396
22.67,-0.011326,-0.000924
22.675,-0.034238,0.005422
22.68,0.021469,-0.007059
22.685,0.004853,-0.004315
22.69,-0.02788,-0.002869
22.695,0.015535,0.00064
22.7,0.003275,0.003019
22.705,0.012833,-0.001246
22.71,0.008811,0.014225
22.715,-0.013074,-0.002106
22.72,0.015641,0.004213
22.725,0.007727,0.007731
22.73,-0.010005,-0.0026
22.735,-0.023732,-0.0166
22.74,-0.004278,0.018321
22.745,0.013434,-0.009769
22.75,-0.007205,0.013146
22.755,-0.009443,0.004379
22.76,-0.021287,-0.003741
22.765,0.007624,0.00269
22.77,-0.001474,-0.008046
22.775,-0.000566,0.004631
22.78,0.005794,-0.012732
22.785,0.001352,-0.008907
22.79,0.002766,-0.013266
22.795,-0.004636,0.017882
22.8,0.015395,-0.010747
22.805,-0.008974,0.001009
22.81,0.009383,-0.029401
22.815,0.022719,0.009791
22.82,0.005451,0.004777
22.825,0.009352,-0.006265
22.83,0.003899,-0.001991
22.835,-0.016102,-0.000791
22.84,-0.006808,-0.007657
22.845,-0.007493,-1.2e-05
22.85,-0.01357,-0.003591
22.855,-0.012801,0.007473
22.86,-0.006896,0.011247
22.865,-0.030514,-0.003971
22.87,0.020475,-0.020869
22.875,0.026758,-0.00636
22.88,-0.006904,-0.018579
22.885,-0.016167,-0.004305
22.89,0.005529,-0.014754
22.895,-0.014989,-0.003805
22.9,-0.001964,0.001846
22.905,-0.011167,0.008371
22.91,-0.011664,-0.014152
22.915,0.004335,0.01248
22.92,0.035516,-0.000312
22.925,-0.006966,0.004228
22.93,-3.3e-05,-0.001465
22.935,-0.017129,0.004349
22.94,0.012924,0.000304
22.945,0.011948,0.005348
22.95,-0.0008,0.022557
22.955,-0.003068,-0.001624
22.96,-0.002673,0.011275
22.965,0.022257,0.004202
22.97,-0.000401,0.014009
22.975,0.027471,-0.003358
22.98,0.022434,-0.01736
22.985,0.021213,-0.000246
22.99,-0.016958,0.00069
22.995,0.017669,-0.011789
23.0,0.001478,-0.002611
23.005,0.031277,0.00382
23.01,0.013993,0.013397
23.015,0.005489,-0.003852
23.02,-0.02538,0.009361
23.025,0.020057,0.004914
23.03,0.006279,0.001729
23.035,-0.041309,-0.007829
23.04,0.007111,0.012958
23.045,0.028427,0.001993
23.05,0.007573,-0.007114
23.055,-0.008244,-0.021026
23.06,-0.030814,-0.012473
23.065,-0.035451,-0.002435
23.07,-0.023473,0.0109
23.075,-0.002659,-0.003208
23.08,0.00804,-0.010512
23.085,-0.000828,-0.004152
23.09,-0.01129,0.002796
23.095,0.005641,0.011256
23.1,0.011569,0.014671
23.105,0.000632,-0.000684
23.11,-0.002074,0.00919
23.115,-0.010565,0.010878
23.12,-0.006418,-0.012195
23.125,-0.007257,0.001145
23.13,0.020436,0.008714
23.135,0.007891,0.012297
23.14,0.025003,-0.003642
23.145,0.002532,-0.006798
23.15,-0.004354,0.00292
23.155,-0.001817,-0.00743
23.16,0.011216,-0.012235
23.165,0.007956,-0.003779
23.17,0.000293,-0.005333
23.175,0.022163,0.005145
23.18,0.003607,0.004948
23.185,-0.004297,0.006559
23.19,0.01177,0.019197
23.195,0.005544,0.007499
23.2,-0.003805,-0.007417
23.205,-0.019683,0.000835
23.21,-0.012509,0.011653
23.215,-0.020131,0.004391
23.22,0.002016,-0.002383
23.225,0.007515,-0.008506
23.23,-0.010026,-0.001625
23.235,-0.004097,-0.008818
23.24,0.009992,-0.016548
23.245,0.006147,0.014959
23.25,-0.028223,-0.000445
23.255,0.001798,-0.004194
23.26,0.001699,-0.007646
23.265,-0.003714,0.00051
23.27,0.016463,0.009712
23.275,0.003202,0.005056
23.28,-0.012375,-0.005007
23.285,-0.014389,0.009248
23.29,0.022792,0.003281
23.295,-0.020789,-0.014661
23.3,0.015672,0.000519
23.305,-0.010999,0.01245
23.31,0.026802,0.013017
